0.002,0.004,0.006,0.008,0.01,0.012,0.014,0.016,0.018,0.02,0.022,0.024,0.026,0.028,0.03,0.032,0.034,0.036,0.038,0.04,0.042,0.044,0.046,0.048,0.05,0.052,0.054,0.056,0.058,0.06,0.062,0.064,0.066,0.068,0.07,0.072,0.074,0.076,0.078,0.08,0.082,0.084,0.086,0.088,0.09,0.092,0.094,0.096,0.098,0.1,0.102,0.104,0.106,0.108,0.11,0.112,0.114,0.116,0.118,0.12,0.122,0.124,0.126,0.128,0.13,0.132,0.134,0.136,0.138,0.14,0.142,0.144,0.146,0.148,0.15,0.152,0.154,0.156,0.158,0.16,0.162,0.164,0.166,0.168,0.17,0.172,0.174,0.176,0.178,0.18,0.182,0.184,0.186,0.188,0.19,0.192,0.194,0.196,0.198,0.2,0.202,0.204,0.206,0.208,0.21,0.212,0.214,0.216,0.218,0.22,0.222,0.224,0.226,0.228,0.23,0.232,0.234,0.236,0.238,0.24,0.242,0.244,0.246,0.248,0.25,0.252,0.254,0.256,0.258,0.26,0.262,0.264,0.266,0.268,0.27,0.272,0.274,0.276,0.278,0.28,0.282,0.284,0.286,0.288,0.29,0.292,0.294,0.296,0.298,0.3,0.302,0.304,0.306,0.308,0.31,0.312,0.314,0.316,0.318,0.32,0.322,0.324,0.326,0.328,0.33,0.332,0.334,0.336,0.338,0.34,0.342,0.344,0.346,0.348,0.35,0.352,0.354,0.356,0.358,0.36,0.362,0.364,0.366,0.368,0.37,0.372,0.374,0.376,0.378,0.38,0.382,0.384,0.386,0.388,0.39,0.392,0.394,0.396,0.398,0.4,0.402,0.404,0.406,0.408,0.41,0.412,0.414,0.416,0.418,0.42,0.422,0.424,0.426,0.428,0.43,0.432,0.434,0.436,0.438,0.44,0.442,0.444,0.446,0.448,0.45,0.452,0.454,0.456,0.458,0.46,0.462,0.464,0.466,0.468,0.47,0.472,0.474,0.476,0.478,0.48,0.482,0.484,0.486,0.488,0.49,0.492,0.494,0.496,0.498,0.5,0.502,0.504,0.506,0.508,0.51,0.512,0.514,0.516,0.518,0.52,0.522,0.524,0.526,0.528,0.53,0.532,0.534,0.536,0.538,0.54,0.542,0.544,0.546,0.548,0.55,0.552,0.554,0.556,0.558,0.56,0.562,0.564,0.566,0.568,0.57,0.572,0.574,0.576,0.578,0.58,0.582,0.584,0.586,0.588,0.59,0.592,0.594,0.596,0.598,0.6,0.602,0.604,0.606,0.608,0.61,0.612,0.614,0.616,0.618,0.62,0.622,0.624,0.626,0.628,0.63,0.632,0.634,0.636,0.638,0.64,0.642,0.644,0.646,0.648,0.65,0.652,0.654,0.656,0.658,0.66,0.662,0.664,0.666,0.668,0.67,0.672,0.674,0.676,0.678,0.68,0.682,0.684,0.686,0.688,0.69,0.692,0.694,0.696,0.698,0.7,0.702,0.704,0.706,0.708,0.71,0.712,0.714,0.716,0.718,0.72,0.722,0.724,0.726,0.728,0.73,0.732,0.734,0.736,0.738,0.74,0.742,0.744,0.746,0.748,0.75,0.752,0.754,0.756,0.758,0.76,0.762,0.764,0.766,0.768,0.77,0.772,0.774,0.776,0.778,0.78,0.782,0.784,0.786,0.788,0.79,0.792,0.794,0.796,0.798,0.8,0.802,0.804,0.806,0.808,0.81,0.812,0.814,0.816,0.818,0.82,0.822,0.824,0.826,0.828,0.83,0.832,0.834,0.836,0.838,0.84,0.842,0.844,0.846,0.848,0.85,0.852,0.854,0.856,0.858,0.86,0.862,0.864,0.866,0.868,0.87,0.872,0.874,0.876,0.878,0.88,0.882,0.884,0.886,0.888,0.89,0.892,0.894,0.896,0.898,0.9,0.902,0.904,0.906,0.908,0.91,0.912,0.914,0.916,0.918,0.92,0.922,0.924,0.926,0.928,0.93,0.932,0.934,0.936,0.938,0.94,0.942,0.944,0.946,0.948,0.95,0.952,0.954,0.956,0.958,0.96,0.962,0.964,0.966,0.968,0.97,0.972,0.974,0.976,0.978,0.98,0.982,0.984,0.986,0.988,0.99,0.992,0.994,0.996,0.998,1,1.002,1.004,1.006,1.008,1.01,1.012,1.014,1.016,1.018,1.02,1.022,1.024,1.026,1.028,1.03,1.032,1.034,1.036,1.038,1.04,1.042,1.044,1.046,1.048,1.05,1.052,1.054,1.056,1.058,1.06,1.062,1.064,1.066,1.068,1.07,1.072,1.074,1.076,1.078,1.08,1.082,1.084,1.086,1.088,1.09,1.092,1.094,1.096,1.098,1.1,1.102,1.104,1.106,1.108,1.11,1.112,1.114,1.116,1.118,1.12,1.122,1.124,1.126,1.128,1.13,1.132,1.134,1.136,1.138,1.14,1.142,1.144,1.146,1.148,1.15,1.152,1.154,1.156,1.158,1.16,1.162,1.164,1.166,1.168,1.17,1.172,1.174,1.176,1.178,1.18,1.182,1.184,1.186,1.188,1.19,1.192,1.194,1.196,1.198,1.2,1.202,1.204,1.206,1.208,1.21,1.212,1.214,1.216,1.218,1.22,1.222,1.224,1.226,1.228,1.23,1.232,1.234,1.236,1.238,1.24,1.242,1.244,1.246,1.248,1.25,1.252,1.254,1.256,1.258,1.26,1.262,1.264,1.266,1.268,1.27,1.272,1.274,1.276,1.278,1.28,1.282,1.284,1.286,1.288,1.29,1.292,1.294,1.296,1.298,1.3,1.302,1.304,1.306,1.308,1.31,1.312,1.314,1.316,1.318,1.32,1.322,1.324,1.326,1.328,1.33,1.332,1.334,1.336,1.338,1.34,1.342,1.344,1.346,1.348,1.35,1.352,1.354,1.356,1.358,1.36,1.362,1.364,1.366,1.368,1.37,1.372,1.374,1.376,1.378,1.38,1.382,1.384,1.386,1.388,1.39,1.392,1.394,1.396,1.398,1.4,1.402,1.404,1.406,1.408,1.41,1.412,1.414,1.416,1.418,1.42,1.422,1.424,1.426,1.428,1.43,1.432,1.434,1.436,1.438,1.44,1.442,1.444,1.446,1.448,1.45,1.452,1.454,1.456,1.458,1.46,1.462,1.464,1.466,1.468,1.47,1.472,1.474,1.476,1.478,1.48,1.482,1.484,1.486,1.488,1.49,1.492,1.494,1.496,1.498,1.5,1.502,1.504,1.506,1.508,1.51,1.512,1.514,1.516,1.518,1.52,1.522,1.524,1.526,1.528,1.53,1.532,1.534,1.536,1.538,1.54,1.542,1.544,1.546,1.548,1.55,1.552,1.554,1.556,1.558,1.56,1.562,1.564,1.566,1.568,1.57,1.572,1.574,1.576,1.578,1.58,1.582,1.584,1.586,1.588,1.59,1.592,1.594,1.596,1.598,1.6,1.602,1.604,1.606,1.608,1.61,1.612,1.614,1.616,1.618,1.62,1.622,1.624,1.626,1.628,1.63,1.632,1.634,1.636,1.638,1.64,1.642,1.644,1.646,1.648,1.65,1.652,1.654,1.656,1.658,1.66,1.662,1.664,1.666,1.668,1.67,1.672,1.674,1.676,1.678,1.68,1.682,1.684,1.686,1.688,1.69,1.692,1.694,1.696,1.698,1.7,1.702,1.704,1.706,1.708,1.71,1.712,1.714,1.716,1.718,1.72,1.722,1.724,1.726,1.728,1.73,1.732,1.734,1.736,1.738,1.74,1.742,1.744,1.746,1.748,1.75,1.752,1.754,1.756,1.758,1.76,1.762,1.764,1.766,1.768,1.77,1.772,1.774,1.776,1.778,1.78,1.782,1.784,1.786,1.788,1.79,1.792,1.794,1.796,1.798,1.8,1.802,1.804,1.806,1.808,1.81,1.812,1.814,1.816,1.818,1.82,1.822,1.824,1.826,1.828,1.83,1.832,1.834,1.836,1.838,1.84,1.842,1.844,1.846,1.848,1.85,1.852,1.854,1.856,1.858,1.86,1.862,1.864,1.866,1.868,1.87,1.872,1.874,1.876,1.878,1.88,1.882,1.884,1.886,1.888,1.89,1.892,1.894,1.896,1.898,1.9,1.902,1.904,1.906,1.908,1.91,1.912,1.914,1.916,1.918,1.92,1.922,1.924,1.926,1.928,1.93,1.932,1.934,1.936,1.938,1.94,1.942,1.944,1.946,1.948,1.95,1.952,1.954,1.956,1.958,1.96,1.962,1.964,1.966,1.968,1.97,1.972,1.974,1.976,1.978,1.98,1.982,1.984,1.986,1.988,1.99,1.992,1.994,1.996,1.998,2,2.002,2.004,2.006,2.008,2.01,2.012,2.014,2.016,2.018,2.02,2.022,2.024,2.026,2.028,2.03,2.032,2.034,2.036,2.038,2.04,2.042,2.044,2.046,2.048,2.05,2.052,2.054,2.056,2.058,2.06,2.062,2.064,2.066,2.068,2.07,2.072,2.074,2.076,2.078,2.08,2.082,2.084,2.086,2.088,2.09,2.092,2.094,2.096,2.098,2.1,2.102,2.104,2.106,2.108,2.11,2.112,2.114,2.116,2.118,2.12,2.122,2.124,2.126,2.128,2.13,2.132,2.134,2.136,2.138,2.14,2.142,2.144,2.146,2.148,2.15,2.152,2.154,2.156,2.158,2.16,2.162,2.164,2.166,2.168,2.17,2.172,2.174,2.176,2.178,2.18,2.182,2.184,2.186,2.188,2.19,2.192,2.194,2.196,2.198,2.2,2.202,2.204,2.206,2.208,2.21,2.212,2.214,2.216,2.218,2.22,2.222,2.224,2.226,2.228,2.23,2.232,2.234,2.236,2.238,2.24,2.242,2.244,2.246,2.248,2.25,2.252,2.254,2.256,2.258,2.26,2.262,2.264,2.266,2.268,2.27,2.272,2.274,2.276,2.278,2.28,2.282,2.284,2.286,2.288,2.29,2.292,2.294,2.296,2.298,2.3,2.302,2.304,2.306,2.308,2.31,2.312,2.314,2.316,2.318,2.32,2.322,2.324,2.326,2.328,2.33,2.332,2.334,2.336,2.338,2.34,2.342,2.344,2.346,2.348,2.35,2.352,2.354,2.356,2.358,2.36,2.362,2.364,2.366,2.368,2.37,2.372,2.374,2.376,2.378,2.38,2.382,2.384,2.386,2.388,2.39,2.392,2.394,2.396,2.398,2.4,2.402,2.404,2.406,2.408,2.41,2.412,2.414,2.416,2.418,2.42,2.422,2.424,2.426,2.428,2.43,2.432,2.434,2.436,2.438,2.44,2.442,2.444,2.446,2.448,2.45,2.452,2.454,2.456,2.458,2.46,2.462,2.464,2.466,2.468,2.47,2.472,2.474,2.476,2.478,2.48,2.482,2.484,2.486,2.488,2.49,2.492,2.494,2.496,2.498,2.5,2.502,2.504,2.506,2.508,2.51,2.512,2.514,2.516,2.518,2.52,2.522,2.524,2.526,2.528,2.53,2.532,2.534,2.536,2.538,2.54,2.542,2.544,2.546,2.548,2.55,2.552,2.554,2.556,2.558,2.56,2.562,2.564,2.566,2.568,2.57,2.572,2.574,2.576,2.578,2.58,2.582,2.584,2.586,2.588,2.59,2.592,2.594,2.596,2.598,2.6,2.602,2.604,2.606,2.608,2.61,2.612,2.614,2.616,2.618,2.62,2.622,2.624,2.626,2.628,2.63,2.632,2.634,2.636,2.638,2.64,2.642,2.644,2.646,2.648,2.65,2.652,2.654,2.656,2.658,2.66,2.662,2.664,2.666,2.668,2.67,2.672,2.674,2.676,2.678,2.68,2.682,2.684,2.686,2.688,2.69,2.692,2.694,2.696,2.698,2.7,2.702,2.704,2.706,2.708,2.71,2.712,2.714,2.716,2.718,2.72,2.722,2.724,2.726,2.728,2.73,2.732,2.734,2.736,2.738,2.74,2.742,2.744,2.746,2.748,2.75,2.752,2.754,2.756,2.758,2.76,2.762,2.764,2.766,2.768,2.77,2.772,2.774,2.776,2.778,2.78,2.782,2.784,2.786,2.788,2.79,2.792,2.794,2.796,2.798,2.8,2.802,2.804,2.806,2.808,2.81,2.812,2.814,2.816,2.818,2.82,2.822,2.824,2.826,2.828,2.83,2.832,2.834,2.836,2.838,2.84,2.842,2.844,2.846,2.848,2.85,2.852,2.854,2.856,2.858,2.86,2.862,2.864,2.866,2.868,2.87,2.872,2.874,2.876,2.878,2.88,2.882,2.884,2.886,2.888,2.89,2.892,2.894,2.896,2.898,2.9,2.902,2.904,2.906,2.908,2.91,2.912,2.914,2.916,2.918,2.92,2.922,2.924,2.926,2.928,2.93,2.932,2.934,2.936,2.938,2.94,2.942,2.944,2.946,2.948,2.95,2.952,2.954,2.956,2.958,2.96,2.962,2.964,2.966,2.968,2.97,2.972,2.974,2.976,2.978,2.98,2.982,2.984,2.986,2.988,2.99,2.992,2.994,2.996,2.998,3,3.002,3.004,3.006,3.008,3.01,3.012,3.014,3.016,3.018,3.02,3.022,3.024,3.026,3.028,3.03,3.032,3.034,3.036,3.038,3.04,3.042,3.044,3.046,3.048,3.05,3.052,3.054,3.056,3.058,3.06,3.062,3.064,3.066,3.068,3.07,3.072,3.074,3.076,3.078,3.08,3.082,3.084,3.086,3.088,3.09,3.092,3.094,3.096,3.098,3.1,3.102,3.104,3.106,3.108,3.11,3.112,3.114,3.116,3.118,3.12,3.122,3.124,3.126,3.128,3.13,3.132,3.134,3.136,3.138,3.14,3.142,3.144,3.146,3.148,3.15,3.152,3.154,3.156,3.158,3.16,3.162,3.164,3.166,3.168,3.17,3.172,3.174,3.176,3.178,3.18,3.182,3.184,3.186,3.188,3.19,3.192,3.194,3.196,3.198,3.2,3.202,3.204,3.206,3.208,3.21,3.212,3.214,3.216,3.218,3.22,3.222,3.224,3.226,3.228,3.23,3.232,3.234,3.236,3.238,3.24,3.242,3.244,3.246,3.248,3.25,3.252,3.254,3.256,3.258,3.26,3.262,3.264,3.266,3.268,3.27,3.272,3.274,3.276,3.278,3.28,3.282,3.284,3.286,3.288,3.29,3.292,3.294,3.296,3.298,3.3,3.302,3.304,3.306,3.308,3.31,3.312,3.314,3.316,3.318,3.32,3.322,3.324,3.326,3.328,3.33,3.332,3.334,3.336,3.338,3.34,3.342,3.344,3.346,3.348,3.35,3.352,3.354,3.356,3.358,3.36,3.362,3.364,3.366,3.368,3.37,3.372,3.374,3.376,3.378,3.38,3.382,3.384,3.386,3.388,3.39,3.392,3.394,3.396,3.398,3.4,3.402,3.404,3.406,3.408,3.41,3.412,3.414,3.416,3.418,3.42,3.422,3.424,3.426,3.428,3.43,3.432,3.434,3.436,3.438,3.44,3.442,3.444,3.446,3.448,3.45,3.452,3.454,3.456,3.458,3.46,3.462,3.464,3.466,3.468,3.47,3.472,3.474,3.476,3.478,3.48,3.482,3.484,3.486,3.488,3.49,3.492,3.494,3.496,3.498,3.5,3.502,3.504,3.506,3.508,3.51,3.512,3.514,3.516,3.518,3.52,3.522,3.524,3.526,3.528,3.53,3.532,3.534,3.536,3.538,3.54,3.542,3.544,3.546,3.548,3.55,3.552,3.554,3.556,3.558,3.56,3.562,3.564,3.566,3.568,3.57,3.572,3.574,3.576,3.578,3.58,3.582,3.584,3.586,3.588,3.59,3.592,3.594,3.596,3.598,3.6,3.602,3.604,3.606,3.608,3.61,3.612,3.614,3.616,3.618,3.62,3.622,3.624,3.626,3.628,3.63,3.632,3.634,3.636,3.638,3.64,3.642,3.644,3.646,3.648,3.65,3.652,3.654,3.656,3.658,3.66,3.662,3.664,3.666,3.668,3.67,3.672,3.674,3.676,3.678,3.68,3.682,3.684,3.686,3.688,3.69,3.692,3.694,3.696,3.698,3.7,3.702,3.704,3.706,3.708,3.71,3.712,3.714,3.716,3.718,3.72,3.722,3.724,3.726,3.728,3.73,3.732,3.734,3.736,3.738,3.74,3.742,3.744,3.746,3.748,3.75,3.752,3.754,3.756,3.758,3.76,3.762,3.764,3.766,3.768,3.77,3.772,3.774,3.776,3.778,3.78,3.782,3.784,3.786,3.788,3.79,3.792,3.794,3.796,3.798,3.8,3.802,3.804,3.806,3.808,3.81,3.812,3.814,3.816,3.818,3.82,3.822,3.824,3.826,3.828,3.83,3.832,3.834,3.836,3.838,3.84,3.842,3.844,3.846,3.848,3.85,3.852,3.854,3.856,3.858,3.86,3.862,3.864,3.866,3.868,3.87,3.872,3.874,3.876,3.878,3.88,3.882,3.884,3.886,3.888,3.89,3.892,3.894,3.896,3.898,3.9,3.902,3.904,3.906,3.908,3.91,3.912,3.914,3.916,3.918,3.92,3.922,3.924,3.926,3.928,3.93,3.932,3.934,3.936,3.938,3.94,3.942,3.944,3.946,3.948,3.95,3.952,3.954,3.956,3.958,3.96,3.962,3.964,3.966,3.968,3.97,3.972,3.974,3.976,3.978,3.98,3.982,3.984,3.986,3.988,3.99,3.992,3.994,3.996,3.998,4,4.002,4.004,4.006,4.008,4.01,4.012,4.014,4.016,4.018,4.02,4.022,4.024,4.026,4.028,4.03,4.032,4.034,4.036,4.038,4.04,4.042,4.044,4.046,4.048,4.05,4.052,4.054,4.056,4.058,4.06,4.062,4.064,4.066,4.068,4.07,4.072,4.074,4.076,4.078,4.08,4.082,4.084,4.086,4.088,4.09,4.092,4.094,4.096,4.098,4.1,4.102,4.104,4.106,4.108,4.11,4.112,4.114,4.116,4.118,4.12,4.122,4.124,4.126,4.128,4.13,4.132,4.134,4.136,4.138,4.14,4.142,4.144,4.146,4.148,4.15,4.152,4.154,4.156,4.158,4.16,4.162,4.164,4.166,4.168,4.17,4.172,4.174,4.176,4.178,4.18,4.182,4.184,4.186,4.188,4.19,4.192,4.194,4.196,4.198,4.2,4.202,4.204,4.206,4.208,4.21,4.212,4.214,4.216,4.218,4.22,4.222,4.224,4.226,4.228,4.23,4.232,4.234,4.236,4.238,4.24,4.242,4.244,4.246,4.248,4.25,4.252,4.254,4.256,4.258,4.26,4.262,4.264,4.266,4.268,4.27,4.272,4.274,4.276,4.278,4.28,4.282,4.284,4.286,4.288,4.29,4.292,4.294,4.296,4.298,4.3,4.302,4.304,4.306,4.308,4.31,4.312,4.314,4.316,4.318,4.32,4.322,4.324,4.326,4.328,4.33,4.332,4.334,4.336,4.338,4.34,4.342,4.344,4.346,4.348,4.35,4.352,4.354,4.356,4.358,4.36,4.362,4.364,4.366,4.368,4.37,4.372,4.374,4.376,4.378,4.38,4.382,4.384,4.386,4.388,4.39,4.392,4.394,4.396,4.398,4.4,4.402,4.404,4.406,4.408,4.41,4.412,4.414,4.416,4.418,4.42,4.422,4.424,4.426,4.428,4.43,4.432,4.434,4.436,4.438,4.44,4.442,4.444,4.446,4.448,4.45,4.452,4.454,4.456,4.458,4.46,4.462,4.464,4.466,4.468,4.47,4.472,4.474,4.476,4.478,4.48,4.482,4.484,4.486,4.488,4.49,4.492,4.494,4.496,4.498,4.5,4.502,4.504,4.506,4.508,4.51,4.512,4.514,4.516,4.518,4.52,4.522,4.524,4.526,4.528,4.53,4.532,4.534,4.536,4.538,4.54,4.542,4.544,4.546,4.548,4.55,4.552,4.554,4.556,4.558,4.56,4.562,4.564,4.566,4.568,4.57,4.572,4.574,4.576,4.578,4.58,4.582,4.584,4.586,4.588,4.59,4.592,4.594,4.596,4.598,4.6,4.602,4.604,4.606,4.608,4.61,4.612,4.614,4.616,4.618,4.62,4.622,4.624,4.626,4.628,4.63,4.632,4.634,4.636,4.638,4.64,4.642,4.644,4.646,4.648,4.65,4.652,4.654,4.656,4.658,4.66,4.662,4.664,4.666,4.668,4.67,4.672,4.674,4.676,4.678,4.68,4.682,4.684,4.686,4.688,4.69,4.692,4.694,4.696,4.698,4.7,4.702,4.704,4.706,4.708,4.71,4.712,4.714,4.716,4.718,4.72,4.722,4.724,4.726,4.728,4.73,4.732,4.734,4.736,4.738,4.74,4.742,4.744,4.746,4.748,4.75,4.752,4.754,4.756,4.758,4.76,4.762,4.764,4.766,4.768,4.77,4.772,4.774,4.776,4.778,4.78,4.782,4.784,4.786,4.788,4.79,4.792,4.794,4.796,4.798,4.8,4.802,4.804,4.806,4.808,4.81,4.812,4.814,4.816,4.818,4.82,4.822,4.824,4.826,4.828,4.83,4.832,4.834,4.836,4.838,4.84,4.842,4.844,4.846,4.848,4.85,4.852,4.854,4.856,4.858,4.86,4.862,4.864,4.866,4.868,4.87,4.872,4.874,4.876,4.878,4.88,4.882,4.884,4.886,4.888,4.89,4.892,4.894,4.896,4.898,4.9,4.902,4.904,4.906,4.908,4.91,4.912,4.914,4.916,4.918,4.92,4.922,4.924,4.926,4.928,4.93,4.932,4.934,4.936,4.938,4.94,4.942,4.944,4.946,4.948,4.95,4.952,4.954,4.956,4.958,4.96,4.962,4.964,4.966,4.968,4.97,4.972,4.974,4.976,4.978,4.98,4.982,4.984,4.986,4.988,4.99,4.992,4.994,4.996,4.998,5,5.002,5.004,5.006,5.008,5.01,5.012,5.014,5.016,5.018,5.02,5.022,5.024,5.026,5.028,5.03,5.032,5.034,5.036,5.038,5.04,5.042,5.044,5.046,5.048,5.05,5.052,5.054,5.056,5.058,5.06,5.062,5.064,5.066,5.068,5.07,5.072,5.074,5.076,5.078,5.08,5.082,5.084,5.086,5.088,5.09,5.092,5.094,5.096,5.098,5.1,5.102,5.104,5.106,5.108,5.11,5.112,5.114,5.116,5.118,5.12,5.122,5.124,5.126,5.128,5.13,5.132,5.134,5.136,5.138,5.14,5.142,5.144,5.146,5.148,5.15,5.152,5.154,5.156,5.158,5.16,5.162,5.164,5.166,5.168,5.17,5.172,5.174,5.176,5.178,5.18,5.182,5.184,5.186,5.188,5.19,5.192,5.194,5.196,5.198,5.2,5.202,5.204,5.206,5.208,5.21,5.212,5.214,5.216,5.218,5.22,5.222,5.224,5.226,5.228,5.23,5.232,5.234,5.236,5.238,5.24,5.242,5.244,5.246,5.248,5.25,5.252,5.254,5.256,5.258,5.26,5.262,5.264,5.266,5.268,5.27,5.272,5.274,5.276,5.278,5.28,5.282,5.284,5.286,5.288,5.29,5.292,5.294,5.296,5.298,5.3,5.302,5.304,5.306,5.308,5.31,5.312,5.314,5.316,5.318,5.32,5.322,5.324,5.326,5.328,5.33,5.332,5.334,5.336,5.338,5.34,5.342,5.344,5.346,5.348,5.35,5.352,5.354,5.356,5.358,5.36,5.362,5.364,5.366,5.368,5.37,5.372,5.374,5.376,5.378,5.38,5.382,5.384,5.386,5.388,5.39,5.392,5.394,5.396,5.398,5.4,5.402,5.404,5.406,5.408,5.41,5.412,5.414,5.416,5.418,5.42,5.422,5.424,5.426,5.428,5.43,5.432,5.434,5.436,5.438,5.44,5.442,5.444,5.446,5.448,5.45,5.452,5.454,5.456,5.458,5.46,5.462,5.464,5.466,5.468,5.47,5.472,5.474,5.476,5.478,5.48,5.482,5.484,5.486,5.488,5.49,5.492,5.494,5.496,5.498,5.5,5.502,5.504,5.506,5.508,5.51,5.512,5.514,5.516,5.518,5.52,5.522,5.524,5.526,5.528,5.53,5.532,5.534,5.536,5.538,5.54,5.542,5.544,5.546,5.548,5.55,5.552,5.554,5.556,5.558,5.56,5.562,5.564,5.566,5.568,5.57,5.572,5.574,5.576,5.578,5.58,5.582,5.584,5.586,5.588,5.59,5.592,5.594,5.596,5.598,5.6,5.602,5.604,5.606,5.608,5.61,5.612,5.614,5.616,5.618,5.62,5.622,5.624,5.626,5.628,5.63,5.632,5.634,5.636,5.638,5.64,5.642,5.644,5.646,5.648,5.65,5.652,5.654,5.656,5.658,5.66,5.662,5.664,5.666,5.668,5.67,5.672,5.674,5.676,5.678,5.68,5.682,5.684,5.686,5.688,5.69,5.692,5.694,5.696,5.698,5.7,5.702,5.704,5.706,5.708,5.71,5.712,5.714,5.716,5.718,5.72,5.722,5.724,5.726,5.728,5.73,5.732,5.734,5.736,5.738,5.74,5.742,5.744,5.746,5.748,5.75,5.752,5.754,5.756,5.758,5.76,5.762,5.764,5.766,5.768,5.77,5.772,5.774,5.776,5.778,5.78,5.782,5.784,5.786,5.788,5.79,5.792,5.794,5.796,5.798,5.8,5.802,5.804,5.806,5.808,5.81,5.812,5.814,5.816,5.818,5.82,5.822,5.824,5.826,5.828,5.83,5.832,5.834,5.836,5.838,5.84,5.842,5.844,5.846,5.848,5.85,5.852,5.854,5.856,5.858,5.86,5.862,5.864,5.866,5.868,5.87,5.872,5.874,5.876,5.878,5.88,5.882,5.884,5.886,5.888,5.89,5.892,5.894,5.896,5.898,5.9,5.902,5.904,5.906,5.908,5.91,5.912,5.914,5.916,5.918,5.92,5.922,5.924,5.926,5.928,5.93,5.932,5.934,5.936,5.938,5.94,5.942,5.944,5.946,5.948,5.95,5.952,5.954,5.956,5.958,5.96,5.962,5.964,5.966,5.968,5.97,5.972,5.974,5.976,5.978,5.98,5.982,5.984,5.986,5.988,5.99,5.992,5.994,5.996,5.998,6,6.002,6.004,6.006,6.008,6.01,6.012,6.014,6.016,6.018,6.02,6.022,6.024,6.026,6.028,6.03,6.032,6.034,6.036,6.038,6.04,6.042,6.044,6.046,6.048,6.05,6.052,6.054,6.056,6.058,6.06,6.062,6.064,6.066,6.068,6.07,6.072,6.074,6.076,6.078,6.08,6.082,6.084,6.086,6.088,6.09,6.092,6.094,6.096,6.098,6.1,6.102,6.104,6.106,6.108,6.11,6.112,6.114,6.116,6.118,6.12,6.122,6.124,6.126,6.128,6.13,6.132,6.134,6.136,6.138,6.14,6.142,6.144,6.146,6.148,6.15,6.152,6.154,6.156,6.158,6.16,6.162,6.164,6.166,6.168,6.17,6.172,6.174,6.176,6.178,6.18,6.182,6.184,6.186,6.188,6.19,6.192,6.194,6.196,6.198,6.2,6.202,6.204,6.206,6.208,6.21,6.212,6.214,6.216,6.218,6.22,6.222,6.224,6.226,6.228,6.23,6.232,6.234,6.236,6.238,6.24,6.242,6.244,6.246,6.248,6.25,6.252,6.254,6.256,6.258,6.26,6.262,6.264,6.266,6.268,6.27,6.272,6.274,6.276,6.278,6.28,6.282,6.284,6.286,6.288,6.29,6.292,6.294,6.296,6.298,6.3,6.302,6.304,6.306,6.308,6.31,6.312,6.314,6.316,6.318,6.32,6.322,6.324,6.326,6.328,6.33,6.332,6.334,6.336,6.338,6.34,6.342,6.344,6.346,6.348,6.35,6.352,6.354,6.356,6.358,6.36,6.362,6.364,6.366,6.368,6.37,6.372,6.374,6.376,6.378,6.38,6.382,6.384,6.386,6.388,6.39,6.392,6.394,6.396,6.398,6.4,6.402,6.404,6.406,6.408,6.41,6.412,6.414,6.416,6.418,6.42,6.422,6.424,6.426,6.428,6.43,6.432,6.434,6.436,6.438,6.44,6.442,6.444,6.446,6.448,6.45,6.452,6.454,6.456,6.458,6.46,6.462,6.464,6.466,6.468,6.47,6.472,6.474,6.476,6.478,6.48,6.482,6.484,6.486,6.488,6.49,6.492,6.494,6.496,6.498,6.5,6.502,6.504,6.506,6.508,6.51,6.512,6.514,6.516,6.518,6.52,6.522,6.524,6.526,6.528,6.53,6.532,6.534,6.536,6.538,6.54,6.542,6.544,6.546,6.548,6.55,6.552,6.554,6.556,6.558,6.56,6.562,6.564,6.566,6.568,6.57,6.572,6.574,6.576,6.578,6.58,6.582,6.584,6.586,6.588,6.59,6.592,6.594,6.596,6.598,6.6,6.602,6.604,6.606,6.608,6.61,6.612,6.614,6.616,6.618,6.62,6.622,6.624,6.626,6.628,6.63,6.632,6.634,6.636,6.638,6.64,6.642,6.644,6.646,6.648,6.65,6.652,6.654,6.656,6.658,6.66,6.662,6.664,6.666,6.668,6.67,6.672,6.674,6.676,6.678,6.68,6.682,6.684,6.686,6.688,6.69,6.692,6.694,6.696,6.698,6.7,6.702,6.704,6.706,6.708,6.71,6.712,6.714,6.716,6.718,6.72,6.722,6.724,6.726,6.728,6.73,6.732,6.734,6.736,6.738,6.74,6.742,6.744,6.746,6.748,6.75,6.752,6.754,6.756,6.758,6.76,6.762,6.764,6.766,6.768,6.77,6.772,6.774,6.776,6.778,6.78,6.782,6.784,6.786,6.788,6.79,6.792,6.794,6.796,6.798,6.8,6.802,6.804,6.806,6.808,6.81,6.812,6.814,6.816,6.818,6.82,6.822,6.824,6.826,6.828,6.83,6.832,6.834,6.836,6.838,6.84,6.842,6.844,6.846,6.848,6.85,6.852,6.854,6.856,6.858,6.86,6.862,6.864,6.866,6.868,6.87,6.872,6.874,6.876,6.878,6.88,6.882,6.884,6.886,6.888,6.89,6.892,6.894,6.896,6.898,6.9,6.902,6.904,6.906,6.908,6.91,6.912,6.914,6.916,6.918,6.92,6.922,6.924,6.926,6.928,6.93,6.932,6.934,6.936,6.938,6.94,6.942,6.944,6.946,6.948,6.95,6.952,6.954,6.956,6.958,6.96,6.962,6.964,6.966,6.968,6.97,6.972,6.974,6.976,6.978,6.98,6.982,6.984,6.986,6.988,6.99,6.992,6.994,6.996,6.998,7,7.002,7.004,7.006,7.008,7.01,7.012,7.014,7.016,7.018,7.02,7.022,7.024,7.026,7.028,7.03,7.032,7.034,7.036,7.038,7.04,7.042,7.044,7.046,7.048,7.05,7.052,7.054,7.056,7.058,7.06,7.062,7.064,7.066,7.068,7.07,7.072,7.074,7.076,7.078,7.08,7.082,7.084,7.086,7.088,7.09,7.092,7.094,7.096,7.098,7.1,7.102,7.104,7.106,7.108,7.11,7.112,7.114,7.116,7.118,7.12,7.122,7.124,7.126,7.128,7.13,7.132,7.134,7.136,7.138,7.14,7.142,7.144,7.146,7.148,7.15,7.152,7.154,7.156,7.158,7.16,7.162,7.164,7.166,7.168,7.17,7.172,7.174,7.176,7.178,7.18,7.182,7.184,7.186,7.188,7.19,7.192,7.194,7.196,7.198,7.2,7.202,7.204,7.206,7.208,7.21,7.212,7.214,7.216,7.218,7.22,7.222,7.224,7.226,7.228,7.23,7.232,7.234,7.236,7.238,7.24,7.242,7.244,7.246,7.248,7.25,7.252,7.254,7.256,7.258,7.26,7.262,7.264,7.266,7.268,7.27,7.272,7.274,7.276,7.278,7.28,7.282,7.284,7.286,7.288,7.29,7.292,7.294,7.296,7.298,7.3,7.302,7.304,7.306,7.308,7.31,7.312,7.314,7.316,7.318,7.32,7.322,7.324,7.326,7.328,7.33,7.332,7.334,7.336,7.338,7.34,7.342,7.344,7.346,7.348,7.35,7.352,7.354,7.356,7.358,7.36,7.362,7.364,7.366,7.368,7.37,7.372,7.374,7.376,7.378,7.38,7.382,7.384,7.386,7.388,7.39,7.392,7.394,7.396,7.398,7.4,7.402,7.404,7.406,7.408,7.41,7.412,7.414,7.416,7.418,7.42,7.422,7.424,7.426,7.428,7.43,7.432,7.434,7.436,7.438,7.44,7.442,7.444,7.446,7.448,7.45,7.452,7.454,7.456,7.458,7.46,7.462,7.464,7.466,7.468,7.47,7.472,7.474,7.476,7.478,7.48,7.482,7.484,7.486,7.488,7.49,7.492,7.494,7.496,7.498,7.5,7.502,7.504,7.506,7.508,7.51,7.512,7.514,7.516,7.518,7.52,7.522,7.524,7.526,7.528,7.53,7.532,7.534,7.536,7.538,7.54,7.542,7.544,7.546,7.548,7.55,7.552,7.554,7.556,7.558,7.56,7.562,7.564,7.566,7.568,7.57,7.572,7.574,7.576,7.578,7.58,7.582,7.584,7.586,7.588,7.59,7.592,7.594,7.596,7.598,7.6,7.602,7.604,7.606,7.608,7.61,7.612,7.614,7.616,7.618,7.62,7.622,7.624,7.626,7.628,7.63,7.632,7.634,7.636,7.638,7.64,7.642,7.644,7.646,7.648,7.65,7.652,7.654,7.656,7.658,7.66,7.662,7.664,7.666,7.668,7.67,7.672,7.674,7.676,7.678,7.68,7.682,7.684,7.686,7.688,7.69,7.692,7.694,7.696,7.698,7.7,7.702,7.704,7.706,7.708,7.71,7.712,7.714,7.716,7.718,7.72,7.722,7.724,7.726,7.728,7.73,7.732,7.734,7.736,7.738,7.74,7.742,7.744,7.746,7.748,7.75,7.752,7.754,7.756,7.758,7.76,7.762,7.764,7.766,7.768,7.77,7.772,7.774,7.776,7.778,7.78,7.782,7.784,7.786,7.788,7.79,7.792,7.794,7.796,7.798,7.8,7.802,7.804,7.806,7.808,7.81,7.812,7.814,7.816,7.818,7.82,7.822,7.824,7.826,7.828,7.83,7.832,7.834,7.836,7.838,7.84,7.842,7.844,7.846,7.848,7.85,7.852,7.854,7.856,7.858,7.86,7.862,7.864,7.866,7.868,7.87,7.872,7.874,7.876,7.878,7.88,7.882,7.884,7.886,7.888,7.89,7.892,7.894,7.896,7.898,7.9,7.902,7.904,7.906,7.908,7.91,7.912,7.914,7.916,7.918,7.92,7.922,7.924,7.926,7.928,7.93,7.932,7.934,7.936,7.938,7.94,7.942,7.944,7.946,7.948,7.95,7.952,7.954,7.956,7.958,7.96,7.962,7.964,7.966,7.968,7.97,7.972,7.974,7.976,7.978,7.98,7.982,7.984,7.986,7.988,7.99,7.992,7.994,7.996,7.998,8,8.002,8.004,8.006,8.008,8.01,8.012,8.014,8.016,8.018,8.02,8.022,8.024,8.026,8.028,8.03,8.032,8.034,8.036,8.038,8.04,8.042,8.044,8.046,8.048,8.05,8.052,8.054,8.056,8.058,8.06,8.062,8.064,8.066,8.068,8.07,8.072,8.074,8.076,8.078,8.08,8.082,8.084,8.086,8.088,8.09,8.092,8.094,8.096,8.098,8.1,8.102,8.104,8.106,8.108,8.11,8.112,8.114,8.116,8.118,8.12,8.122,8.124,8.126,8.128,8.13,8.132,8.134,8.136,8.138,8.14,8.142,8.144,8.146,8.148,8.15,8.152,8.154,8.156,8.158,8.16,8.162,8.164,8.166,8.168,8.17,8.172,8.174,8.176,8.178,8.18,8.182,8.184,8.186,8.188,8.19,8.192,8.194,8.196,8.198,8.2,8.202,8.204,8.206,8.208,8.21,8.212,8.214,8.216,8.218,8.22,8.222,8.224,8.226,8.228,8.23,8.232,8.234,8.236,8.238,8.24,8.242,8.244,8.246,8.248,8.25,8.252,8.254,8.256,8.258,8.26,8.262,8.264,8.266,8.268,8.27,8.272,8.274,8.276,8.278,8.28,8.282,8.284,8.286,8.288,8.29,8.292,8.294,8.296,8.298,8.3,8.302,8.304,8.306,8.308,8.31,8.312,8.314,8.316,8.318,8.32,8.322,8.324,8.326,8.328,8.33,8.332,8.334,8.336,8.338,8.34,8.342,8.344,8.346,8.348,8.35,8.352,8.354,8.356,8.358,8.36,8.362,8.364,8.366,8.368,8.37,8.372,8.374,8.376,8.378,8.38,8.382,8.384,8.386,8.388,8.39,8.392,8.394,8.396,8.398,8.4,8.402,8.404,8.406,8.408,8.41,8.412,8.414,8.416,8.418,8.42,8.422,8.424,8.426,8.428,8.43,8.432,8.434,8.436,8.438,8.44,8.442,8.444,8.446,8.448,8.45,8.452,8.454,8.456,8.458,8.46,8.462,8.464,8.466,8.468,8.47,8.472,8.474,8.476,8.478,8.48,8.482,8.484,8.486,8.488,8.49,8.492,8.494,8.496,8.498,8.5,8.502,8.504,8.506,8.508,8.51,8.512,8.514,8.516,8.518,8.52,8.522,8.524,8.526,8.528,8.53,8.532,8.534,8.536,8.538,8.54,8.542,8.544,8.546,8.548,8.55,8.552,8.554,8.556,8.558,8.56,8.562,8.564,8.566,8.568,8.57,8.572,8.574,8.576,8.578,8.58,8.582,8.584,8.586,8.588,8.59,8.592,8.594,8.596,8.598,8.6,8.602,8.604,8.606,8.608,8.61,8.612,8.614,8.616,8.618,8.62,8.622,8.624,8.626,8.628,8.63,8.632,8.634,8.636,8.638,8.64,8.642,8.644,8.646,8.648,8.65,8.652,8.654,8.656,8.658,8.66,8.662,8.664,8.666,8.668,8.67,8.672,8.674,8.676,8.678,8.68,8.682,8.684,8.686,8.688,8.69,8.692,8.694,8.696,8.698,8.7,8.702,8.704,8.706,8.708,8.71,8.712,8.714,8.716,8.718,8.72,8.722,8.724,8.726,8.728,8.73,8.732,8.734,8.736,8.738,8.74,8.742,8.744,8.746,8.748,8.75,8.752,8.754,8.756,8.758,8.76,8.762,8.764,8.766,8.768,8.77,8.772,8.774,8.776,8.778,8.78,8.782,8.784,8.786,8.788,8.79,8.792,8.794,8.796,8.798,8.8,8.802,8.804,8.806,8.808,8.81,8.812,8.814,8.816,8.818,8.82,8.822,8.824,8.826,8.828,8.83,8.832,8.834,8.836,8.838,8.84,8.842,8.844,8.846,8.848,8.85,8.852,8.854,8.856,8.858,8.86,8.862,8.864,8.866,8.868,8.87,8.872,8.874,8.876,8.878,8.88,8.882,8.884,8.886,8.888,8.89,8.892,8.894,8.896,8.898,8.9,8.902,8.904,8.906,8.908,8.91,8.912,8.914,8.916,8.918,8.92,8.922,8.924,8.926,8.928,8.93,8.932,8.934,8.936,8.938,8.94,8.942,8.944,8.946,8.948,8.95,8.952,8.954,8.956,8.958,8.96,8.962,8.964,8.966,8.968,8.97,8.972,8.974,8.976,8.978,8.98,8.982,8.984,8.986,8.988,8.99,8.992,8.994,8.996,8.998,9,9.002,9.004,9.006,9.008,9.01,9.012,9.014,9.016,9.018,9.02,9.022,9.024,9.026,9.028,9.03,9.032,9.034,9.036,9.038,9.04,9.042,9.044,9.046,9.048,9.05,9.052,9.054,9.056,9.058,9.06,9.062,9.064,9.066,9.068,9.07,9.072,9.074,9.076,9.078,9.08,9.082,9.084,9.086,9.088,9.09,9.092,9.094,9.096,9.098,9.1,9.102,9.104,9.106,9.108,9.11,9.112,9.114,9.116,9.118,9.12,9.122,9.124,9.126,9.128,9.13,9.132,9.134,9.136,9.138,9.14,9.142,9.144,9.146,9.148,9.15,9.152,9.154,9.156,9.158,9.16,9.162,9.164,9.166,9.168,9.17,9.172,9.174,9.176,9.178,9.18,9.182,9.184,9.186,9.188,9.19,9.192,9.194,9.196,9.198,9.2,9.202,9.204,9.206,9.208,9.21,9.212,9.214,9.216,9.218,9.22,9.222,9.224,9.226,9.228,9.23,9.232,9.234,9.236,9.238,9.24,9.242,9.244,9.246,9.248,9.25,9.252,9.254,9.256,9.258,9.26,9.262,9.264,9.266,9.268,9.27,9.272,9.274,9.276,9.278,9.28,9.282,9.284,9.286,9.288,9.29,9.292,9.294,9.296,9.298,9.3,9.302,9.304,9.306,9.308,9.31,9.312,9.314,9.316,9.318,9.32,9.322,9.324,9.326,9.328,9.33,9.332,9.334,9.336,9.338,9.34,9.342,9.344,9.346,9.348,9.35,9.352,9.354,9.356,9.358,9.36,9.362,9.364,9.366,9.368,9.37,9.372,9.374,9.376,9.378,9.38,9.382,9.384,9.386,9.388,9.39,9.392,9.394,9.396,9.398,9.4,9.402,9.404,9.406,9.408,9.41,9.412,9.414,9.416,9.418,9.42,9.422,9.424,9.426,9.428,9.43,9.432,9.434,9.436,9.438,9.44,9.442,9.444,9.446,9.448,9.45,9.452,9.454,9.456,9.458,9.46,9.462,9.464,9.466,9.468,9.47,9.472,9.474,9.476,9.478,9.48,9.482,9.484,9.486,9.488,9.49,9.492,9.494,9.496,9.498,9.5,9.502,9.504,9.506,9.508,9.51,9.512,9.514,9.516,9.518,9.52,9.522,9.524,9.526,9.528,9.53,9.532,9.534,9.536,9.538,9.54,9.542,9.544,9.546,9.548,9.55,9.552,9.554,9.556,9.558,9.56,9.562,9.564,9.566,9.568,9.57,9.572,9.574,9.576,9.578,9.58,9.582,9.584,9.586,9.588,9.59,9.592,9.594,9.596,9.598,9.6,9.602,9.604,9.606,9.608,9.61,9.612,9.614,9.616,9.618,9.62,9.622,9.624,9.626,9.628,9.63,9.632,9.634,9.636,9.638,9.64,9.642,9.644,9.646,9.648,9.65,9.652,9.654,9.656,9.658,9.66,9.662,9.664,9.666,9.668,9.67,9.672,9.674,9.676,9.678,9.68,9.682,9.684,9.686,9.688,9.69,9.692,9.694,9.696,9.698,9.7,9.702,9.704,9.706,9.708,9.71,9.712,9.714,9.716,9.718,9.72,9.722,9.724,9.726,9.728,9.73,9.732,9.734,9.736,9.738,9.74,9.742,9.744,9.746,9.748,9.75,9.752,9.754,9.756,9.758,9.76,9.762,9.764,9.766,9.768,9.77,9.772,9.774,9.776,9.778,9.78,9.782,9.784,9.786,9.788,9.79,9.792,9.794,9.796,9.798,9.8,9.802,9.804,9.806,9.808,9.81,9.812,9.814,9.816,9.818,9.82,9.822,9.824,9.826,9.828,9.83,9.832,9.834,9.836,9.838,9.84,9.842,9.844,9.846,9.848,9.85,9.852,9.854,9.856,9.858,9.86,9.862,9.864,9.866,9.868,9.87,9.872,9.874,9.876,9.878,9.88,9.882,9.884,9.886,9.888,9.89,9.892,9.894,9.896,9.898,9.9,9.902,9.904,9.906,9.908,9.91,9.912,9.914,9.916,9.918,9.92,9.922,9.924,9.926,9.928,9.93,9.932,9.934,9.936,9.938,9.94,9.942,9.944,9.946,9.948,9.95,9.952,9.954,9.956,9.958,9.96,9.962,9.964,9.966,9.968,9.97,9.972,9.974,9.976,9.978,9.98,9.982,9.984,9.986,9.988,9.99,9.992,9.994,9.996,9.998,10,10.002,10.004,10.006,10.008,10.01,10.012,10.014,10.016,10.018,10.02,10.022,10.024,10.026,10.028,10.03,10.032,10.034,10.036,10.038,10.04,10.042,10.044,10.046,10.048,10.05,10.052,10.054,10.056,10.058,10.06,10.062,10.064,10.066,10.068,10.07,10.072,10.074,10.076,10.078,10.08,10.082,10.084,10.086,10.088,10.09,10.092,10.094,10.096,10.098,10.1,10.102,10.104,10.106,10.108,10.11,10.112,10.114,10.116,10.118,10.12,10.122,10.124,10.126,10.128,10.13,10.132,10.134,10.136,10.138,10.14,10.142,10.144,10.146,10.148,10.15,10.152,10.154,10.156,10.158,10.16,10.162,10.164,10.166,10.168,10.17,10.172,10.174,10.176,10.178,10.18,10.182,10.184,10.186,10.188,10.19,10.192,10.194,10.196,10.198,10.2,10.202,10.204,10.206,10.208,10.21,10.212,10.214,10.216,10.218,10.22,10.222,10.224,10.226,10.228,10.23,10.232,10.234,10.236,10.238,10.24,10.242,10.244,10.246,10.248,10.25,10.252,10.254,10.256,10.258,10.26,10.262,10.264,10.266,10.268,10.27,10.272,10.274,10.276,10.278,10.28,10.282,10.284,10.286,10.288,10.29,10.292,10.294,10.296,10.298,10.3,10.302,10.304,10.306,10.308,10.31,10.312,10.314,10.316,10.318,10.32,10.322,10.324,10.326,10.328,10.33,10.332,10.334,10.336,10.338,10.34,10.342,10.344,10.346,10.348,10.35,10.352,10.354,10.356,10.358,10.36,10.362,10.364,10.366,10.368,10.37,10.372,10.374,10.376,10.378,10.38,10.382,10.384,10.386,10.388,10.39,10.392,10.394,10.396,10.398,10.4,10.402,10.404,10.406,10.408,10.41,10.412,10.414,10.416,10.418,10.42,10.422,10.424,10.426,10.428,10.43,10.432,10.434,10.436,10.438,10.44,10.442,10.444,10.446,10.448,10.45,10.452,10.454,10.456,10.458,10.46,10.462,10.464,10.466,10.468,10.47,10.472,10.474,10.476,10.478,10.48,10.482,10.484,10.486,10.488,10.49,10.492,10.494,10.496,10.498,10.5,10.502,10.504,10.506,10.508,10.51,10.512,10.514,10.516,10.518,10.52,10.522,10.524,10.526,10.528,10.53,10.532,10.534,10.536,10.538,10.54,10.542,10.544,10.546,10.548,10.55,10.552,10.554,10.556,10.558,10.56,10.562,10.564,10.566,10.568,10.57,10.572,10.574,10.576,10.578,10.58,10.582,10.584,10.586,10.588,10.59,10.592,10.594,10.596,10.598,10.6,10.602,10.604,10.606,10.608,10.61,10.612,10.614,10.616,10.618,10.62,10.622,10.624,10.626,10.628,10.63,10.632,10.634,10.636,10.638,10.64,10.642,10.644,10.646,10.648,10.65,10.652,10.654,10.656,10.658,10.66,10.662,10.664,10.666,10.668,10.67,10.672,10.674,10.676,10.678,10.68,10.682,10.684,10.686,10.688,10.69,10.692,10.694,10.696,10.698,10.7,10.702,10.704,10.706,10.708,10.71,10.712,10.714,10.716,10.718,10.72,10.722,10.724,10.726,10.728,10.73,10.732,10.734,10.736,10.738,10.74,10.742,10.744,10.746,10.748,10.75,10.752,10.754,10.756,10.758,10.76,10.762,10.764,10.766,10.768,10.77,10.772,10.774,10.776,10.778,10.78,10.782,10.784,10.786,10.788,10.79,10.792,10.794,10.796,10.798,10.8,10.802,10.804,10.806,10.808,10.81,10.812,10.814,10.816,10.818,10.82,10.822,10.824,10.826,10.828,10.83,10.832,10.834,10.836,10.838,10.84,10.842,10.844,10.846,10.848,10.85,10.852,10.854,10.856,10.858,10.86,10.862,10.864,10.866,10.868,10.87,10.872,10.874,10.876,10.878,10.88,10.882,10.884,10.886,10.888,10.89,10.892,10.894,10.896,10.898,10.9,10.902,10.904,10.906,10.908,10.91,10.912,10.914,10.916,10.918,10.92,10.922,10.924,10.926,10.928,10.93,10.932,10.934,10.936,10.938,10.94,10.942,10.944,10.946,10.948,10.95,10.952,10.954,10.956,10.958,10.96,10.962,10.964,10.966,10.968,10.97,10.972,10.974,10.976,10.978,10.98,10.982,10.984,10.986,10.988,10.99,10.992,10.994,10.996,10.998,11,11.002,11.004,11.006,11.008,11.01,11.012,11.014,11.016,11.018,11.02,11.022,11.024,11.026,11.028,11.03,11.032,11.034,11.036,11.038,11.04,11.042,11.044,11.046,11.048,11.05,11.052,11.054,11.056,11.058,11.06,11.062,11.064,11.066,11.068,11.07,11.072,11.074,11.076,11.078,11.08,11.082,11.084,11.086,11.088,11.09,11.092,11.094,11.096,11.098,11.1,11.102,11.104,11.106,11.108,11.11,11.112,11.114,11.116,11.118,11.12,11.122,11.124,11.126,11.128,11.13,11.132,11.134,11.136,11.138,11.14,11.142,11.144,11.146,11.148,11.15,11.152,11.154,11.156,11.158,11.16,11.162,11.164,11.166,11.168,11.17,11.172,11.174,11.176,11.178,11.18,11.182,11.184,11.186,11.188,11.19,11.192,11.194,11.196,11.198,11.2,11.202,11.204,11.206,11.208,11.21,11.212,11.214,11.216,11.218,11.22,11.222,11.224,11.226,11.228,11.23,11.232,11.234,11.236,11.238,11.24,11.242,11.244,11.246,11.248,11.25,11.252,11.254,11.256,11.258,11.26,11.262,11.264,11.266,11.268,11.27,11.272,11.274,11.276,11.278,11.28,11.282,11.284,11.286,11.288,11.29,11.292,11.294,11.296,11.298,11.3,11.302,11.304,11.306,11.308,11.31,11.312,11.314,11.316,11.318,11.32,11.322,11.324,11.326,11.328,11.33,11.332,11.334,11.336,11.338,11.34,11.342,11.344,11.346,11.348,11.35,11.352,11.354,11.356,11.358,11.36,11.362,11.364,11.366,11.368,11.37,11.372,11.374,11.376,11.378,11.38,11.382,11.384,11.386,11.388,11.39,11.392,11.394,11.396,11.398,11.4,11.402,11.404,11.406,11.408,11.41,11.412,11.414,11.416,11.418,11.42,11.422,11.424,11.426,11.428,11.43,11.432,11.434,11.436,11.438,11.44,11.442,11.444,11.446,11.448,11.45,11.452,11.454,11.456,11.458,11.46,11.462,11.464,11.466,11.468,11.47,11.472,11.474,11.476,11.478,11.48,11.482,11.484,11.486,11.488,11.49,11.492,11.494,11.496,11.498,11.5,11.502,11.504,11.506,11.508,11.51,11.512,11.514,11.516,11.518,11.52,11.522,11.524,11.526,11.528,11.53,11.532,11.534,11.536,11.538,11.54,11.542,11.544,11.546,11.548,11.55,11.552,11.554,11.556,11.558,11.56,11.562,11.564,11.566,11.568,11.57,11.572,11.574,11.576,11.578,11.58,11.582,11.584,11.586,11.588,11.59,11.592,11.594,11.596,11.598,11.6,11.602,11.604,11.606,11.608,11.61,11.612,11.614,11.616,11.618,11.62,11.622,11.624,11.626,11.628,11.63,11.632,11.634,11.636,11.638,11.64,11.642,11.644,11.646,11.648,11.65,11.652,11.654,11.656,11.658,11.66,11.662,11.664,11.666,11.668,11.67,11.672,11.674,11.676,11.678,11.68,11.682,11.684,11.686,11.688,11.69,11.692,11.694,11.696,11.698,11.7,11.702,11.704,11.706,11.708,11.71,11.712,11.714,11.716,11.718,11.72,11.722,11.724,11.726,11.728,11.73,11.732,11.734,11.736,11.738,11.74,11.742,11.744,11.746,11.748,11.75,11.752,11.754,11.756,11.758,11.76,11.762,11.764,11.766,11.768,11.77,11.772,11.774,11.776,11.778,11.78,11.782,11.784,11.786,11.788,11.79,11.792,11.794,11.796,11.798,11.8,11.802,11.804,11.806,11.808,11.81,11.812,11.814,11.816,11.818,11.82,11.822,11.824,11.826,11.828,11.83,11.832,11.834,11.836,11.838,11.84,11.842,11.844,11.846,11.848,11.85,11.852,11.854,11.856,11.858,11.86,11.862,11.864,11.866,11.868,11.87,11.872,11.874,11.876,11.878,11.88,11.882,11.884,11.886,11.888,11.89,11.892,11.894,11.896,11.898,11.9,11.902,11.904,11.906,11.908,11.91,11.912,11.914,11.916,11.918,11.92,11.922,11.924,11.926,11.928,11.93,11.932,11.934,11.936,11.938,11.94,11.942,11.944,11.946,11.948,11.95,11.952,11.954,11.956,11.958,11.96,11.962,11.964,11.966,11.968,11.97,11.972,11.974,11.976,11.978,11.98,11.982,11.984,11.986,11.988,11.99,11.992,11.994,11.996,11.998,12,12.002,12.004,12.006,12.008,12.01,12.012,12.014,12.016,12.018,12.02,12.022,12.024,12.026,12.028,12.03,12.032,12.034,12.036,12.038,12.04,12.042,12.044,12.046,12.048,12.05,12.052,12.054,12.056,12.058,12.06,12.062,12.064,12.066,12.068,12.07,12.072,12.074,12.076,12.078,12.08,12.082,12.084,12.086,12.088,12.09,12.092,12.094,12.096,12.098,12.1,12.102,12.104,12.106,12.108,12.11,12.112,12.114,12.116,12.118,12.12,12.122,12.124,12.126,12.128,12.13,12.132,12.134,12.136,12.138,12.14,12.142,12.144,12.146,12.148,12.15,12.152,12.154,12.156,12.158,12.16,12.162,12.164,12.166,12.168,12.17,12.172,12.174,12.176,12.178,12.18,12.182,12.184,12.186,12.188,12.19,12.192,12.194,12.196,12.198,12.2,12.202,12.204,12.206,12.208,12.21,12.212,12.214,12.216,12.218,12.22,12.222,12.224,12.226,12.228,12.23,12.232,12.234,12.236,12.238,12.24,12.242,12.244,12.246,12.248,12.25,12.252,12.254,12.256,12.258,12.26,12.262,12.264,12.266,12.268,12.27,12.272,12.274,12.276,12.278,12.28,12.282,12.284,12.286,12.288,12.29,12.292,12.294,12.296,12.298,12.3,12.302,12.304,12.306,12.308,12.31,12.312,12.314,12.316,12.318,12.32,12.322,12.324,12.326,12.328,12.33,12.332,12.334,12.336,12.338,12.34,12.342,12.344,12.346,12.348,12.35,12.352,12.354,12.356,12.358,12.36,12.362,12.364,12.366,12.368,12.37,12.372,12.374,12.376,12.378,12.38,12.382,12.384,12.386,12.388,12.39,12.392,12.394,12.396,12.398,12.4,12.402,12.404,12.406,12.408,12.41,12.412,12.414,12.416,12.418,12.42,12.422,12.424,12.426,12.428,12.43,12.432,12.434,12.436,12.438,12.44,12.442,12.444,12.446,12.448,12.45,12.452,12.454,12.456,12.458,12.46,12.462,12.464,12.466,12.468,12.47,12.472,12.474,12.476,12.478,12.48,12.482,12.484,12.486,12.488,12.49,12.492,12.494,12.496,12.498,12.5,12.502,12.504,12.506,12.508,12.51,12.512,12.514,12.516,12.518,12.52,12.522,12.524,12.526,12.528,12.53,12.532,12.534,12.536,12.538,12.54,12.542,12.544,12.546,12.548,12.55,12.552,12.554,12.556,12.558,12.56,12.562,12.564,12.566,12.568,12.57,12.572,12.574,12.576,12.578,12.58,12.582,12.584,12.586,12.588,12.59,12.592,12.594,12.596,12.598,12.6,12.602,12.604,12.606,12.608,12.61,12.612,12.614,12.616,12.618,12.62,12.622,12.624,12.626,12.628,12.63,12.632,12.634,12.636,12.638,12.64,12.642,12.644,12.646,12.648,12.65,12.652,12.654,12.656,12.658,12.66,12.662,12.664,12.666,12.668,12.67,12.672,12.674,12.676,12.678,12.68,12.682,12.684,12.686,12.688,12.69,12.692,12.694,12.696,12.698,12.7,12.702,12.704,12.706,12.708,12.71,12.712,12.714,12.716,12.718,12.72,12.722,12.724,12.726,12.728,12.73,12.732,12.734,12.736,12.738,12.74,12.742,12.744,12.746,12.748,12.75,12.752,12.754,12.756,12.758,12.76,12.762,12.764,12.766,12.768,12.77,12.772,12.774,12.776,12.778,12.78,12.782,12.784,12.786,12.788,12.79,12.792,12.794,12.796,12.798,12.8,12.802,12.804,12.806,12.808,12.81,12.812,12.814,12.816,12.818,12.82,12.822,12.824,12.826,12.828,12.83,12.832,12.834,12.836,12.838,12.84,12.842,12.844,12.846,12.848,12.85,12.852,12.854,12.856,12.858,12.86,12.862,12.864,12.866,12.868,12.87,12.872,12.874,12.876,12.878,12.88,12.882,12.884,12.886,12.888,12.89,12.892,12.894,12.896,12.898,12.9,12.902,12.904,12.906,12.908,12.91,12.912,12.914,12.916,12.918,12.92,12.922,12.924,12.926,12.928,12.93,12.932,12.934,12.936,12.938,12.94,12.942,12.944,12.946,12.948,12.95,12.952,12.954,12.956,12.958,12.96,12.962,12.964,12.966,12.968,12.97,12.972,12.974,12.976,12.978,12.98,12.982,12.984,12.986,12.988,12.99,12.992,12.994,12.996,12.998,13,13.002,13.004,13.006,13.008,13.01,13.012,13.014,13.016,13.018,13.02,13.022,13.024,13.026,13.028,13.03,13.032,13.034,13.036,13.038,13.04,13.042,13.044,13.046,13.048,13.05,13.052,13.054,13.056,13.058,13.06,13.062,13.064,13.066,13.068,13.07,13.072,13.074,13.076,13.078,13.08,13.082,13.084,13.086,13.088,13.09,13.092,13.094,13.096,13.098,13.1,13.102,13.104,13.106,13.108,13.11,13.112,13.114,13.116,13.118,13.12,13.122,13.124,13.126,13.128,13.13,13.132,13.134,13.136,13.138,13.14,13.142,13.144,13.146,13.148,13.15,13.152,13.154,13.156,13.158,13.16,13.162,13.164,13.166,13.168,13.17,13.172,13.174,13.176,13.178,13.18,13.182,13.184,13.186,13.188,13.19,13.192,13.194,13.196,13.198,13.2,13.202,13.204,13.206,13.208,13.21,13.212,13.214,13.216,13.218,13.22,13.222,13.224,13.226,13.228,13.23,13.232,13.234,13.236,13.238,13.24,13.242,13.244,13.246,13.248,13.25,13.252,13.254,13.256,13.258,13.26,13.262,13.264,13.266,13.268,13.27,13.272,13.274,13.276,13.278,13.28,13.282,13.284,13.286,13.288,13.29,13.292,13.294,13.296,13.298,13.3,13.302,13.304,13.306,13.308,13.31,13.312,13.314,13.316,13.318,13.32,13.322,13.324,13.326,13.328,13.33,13.332,13.334,13.336,13.338,13.34,13.342,13.344,13.346,13.348,13.35,13.352,13.354,13.356,13.358,13.36,13.362,13.364,13.366,13.368,13.37,13.372,13.374,13.376,13.378,13.38,13.382,13.384,13.386,13.388,13.39,13.392,13.394,13.396,13.398,13.4,13.402,13.404,13.406,13.408,13.41,13.412,13.414,13.416,13.418,13.42,13.422,13.424,13.426,13.428,13.43,13.432,13.434,13.436,13.438,13.44,13.442,13.444,13.446,13.448,13.45,13.452,13.454,13.456,13.458,13.46,13.462,13.464,13.466,13.468,13.47,13.472,13.474,13.476,13.478,13.48,13.482,13.484,13.486,13.488,13.49,13.492,13.494,13.496,13.498,13.5,13.502,13.504,13.506,13.508,13.51,13.512,13.514,13.516,13.518,13.52,13.522,13.524,13.526,13.528,13.53,13.532,13.534,13.536,13.538,13.54,13.542,13.544,13.546,13.548,13.55,13.552,13.554,13.556,13.558,13.56,13.562,13.564,13.566,13.568,13.57,13.572,13.574,13.576,13.578,13.58,13.582,13.584,13.586,13.588,13.59,13.592,13.594,13.596,13.598,13.6,13.602,13.604,13.606,13.608,13.61,13.612,13.614,13.616,13.618,13.62,13.622,13.624,13.626,13.628,13.63,13.632,13.634,13.636,13.638,13.64,13.642,13.644,13.646,13.648,13.65,13.652,13.654,13.656,13.658,13.66,13.662,13.664,13.666,13.668,13.67,13.672,13.674,13.676,13.678,13.68,13.682,13.684,13.686,13.688,13.69,13.692,13.694,13.696,13.698,13.7,13.702,13.704,13.706,13.708,13.71,13.712,13.714,13.716,13.718,13.72,13.722,13.724,13.726,13.728,13.73,13.732,13.734,13.736,13.738,13.74,13.742,13.744,13.746,13.748,13.75,13.752,13.754,13.756,13.758,13.76,13.762,13.764,13.766,13.768,13.77,13.772,13.774,13.776,13.778,13.78,13.782,13.784,13.786,13.788,13.79,13.792,13.794,13.796,13.798,13.8,13.802,13.804,13.806,13.808,13.81,13.812,13.814,13.816,13.818,13.82,13.822,13.824,13.826,13.828,13.83,13.832,13.834,13.836,13.838,13.84,13.842,13.844,13.846,13.848,13.85,13.852,13.854,13.856,13.858,13.86,13.862,13.864,13.866,13.868,13.87,13.872,13.874,13.876,13.878,13.88,13.882,13.884,13.886,13.888,13.89,13.892,13.894,13.896,13.898,13.9,13.902,13.904,13.906,13.908,13.91,13.912,13.914,13.916,13.918,13.92,13.922,13.924,13.926,13.928,13.93,13.932,13.934,13.936,13.938,13.94,13.942,13.944,13.946,13.948,13.95,13.952,13.954,13.956,13.958,13.96,13.962,13.964,13.966,13.968,13.97,13.972,13.974,13.976,13.978,13.98,13.982,13.984,13.986,13.988,13.99,13.992,13.994,13.996,13.998,14,14.002,14.004,14.006,14.008,14.01,14.012,14.014,14.016,14.018,14.02,14.022,14.024,14.026,14.028,14.03,14.032,14.034,14.036,14.038,14.04,14.042,14.044,14.046,14.048,14.05,14.052,14.054,14.056,14.058,14.06,14.062,14.064,14.066,14.068,14.07,14.072,14.074,14.076,14.078,14.08,14.082,14.084,14.086,14.088,14.09,14.092,14.094,14.096,14.098,14.1,14.102,14.104,14.106,14.108,14.11,14.112,14.114,14.116,14.118,14.12,14.122,14.124,14.126,14.128,14.13,14.132,14.134,14.136,14.138,14.14,14.142,14.144,14.146,14.148,14.15,14.152,14.154,14.156,14.158,14.16,14.162,14.164,14.166,14.168,14.17,14.172,14.174,14.176,14.178,14.18,14.182,14.184,14.186,14.188,14.19,14.192,14.194,14.196,14.198,14.2,14.202,14.204,14.206,14.208,14.21,14.212,14.214,14.216,14.218,14.22,14.222,14.224,14.226,14.228,14.23,14.232,14.234,14.236,14.238,14.24,14.242,14.244,14.246,14.248,14.25,14.252,14.254,14.256,14.258,14.26,14.262,14.264,14.266,14.268,14.27,14.272,14.274,14.276,14.278,14.28,14.282,14.284,14.286,14.288,14.29,14.292,14.294,14.296,14.298,14.3,14.302,14.304,14.306,14.308,14.31,14.312,14.314,14.316,14.318,14.32,14.322,14.324,14.326,14.328,14.33,14.332,14.334,14.336,14.338,14.34,14.342,14.344,14.346,14.348,14.35,14.352,14.354,14.356,14.358,14.36,14.362,14.364,14.366,14.368,14.37,14.372,14.374,14.376,14.378,14.38,14.382,14.384,14.386,14.388,14.39,14.392,14.394,14.396,14.398,14.4,14.402,14.404,14.406,14.408,14.41,14.412,14.414,14.416,14.418,14.42,14.422,14.424,14.426,14.428,14.43,14.432,14.434,14.436,14.438,14.44,14.442,14.444,14.446,14.448,14.45,14.452,14.454,14.456,14.458,14.46,14.462,14.464,14.466,14.468,14.47,14.472,14.474,14.476,14.478,14.48,14.482,14.484,14.486,14.488,14.49,14.492,14.494,14.496,14.498,14.5,14.502,14.504,14.506,14.508,14.51,14.512,14.514,14.516,14.518,14.52,14.522,14.524,14.526,14.528,14.53,14.532,14.534,14.536,14.538,14.54,14.542,14.544,14.546,14.548,14.55,14.552,14.554,14.556,14.558,14.56,14.562,14.564,14.566,14.568,14.57,14.572,14.574,14.576,14.578,14.58,14.582,14.584,14.586,14.588,14.59,14.592,14.594,14.596,14.598,14.6,14.602,14.604,14.606,14.608,14.61,14.612,14.614,14.616,14.618,14.62,14.622,14.624,14.626,14.628,14.63,14.632,14.634,14.636,14.638,14.64,14.642,14.644,14.646,14.648,14.65,14.652,14.654,14.656,14.658,14.66,14.662,14.664,14.666,14.668,14.67,14.672,14.674,14.676,14.678,14.68,14.682,14.684,14.686,14.688,14.69,14.692,14.694,14.696,14.698,14.7,14.702,14.704,14.706,14.708,14.71,14.712,14.714,14.716,14.718,14.72,14.722,14.724,14.726,14.728,14.73,14.732,14.734,14.736,14.738,14.74,14.742,14.744,14.746,14.748,14.75,14.752,14.754,14.756,14.758,14.76,14.762,14.764,14.766,14.768,14.77,14.772,14.774,14.776,14.778,14.78,14.782,14.784,14.786,14.788,14.79,14.792,14.794,14.796,14.798,14.8,14.802,14.804,14.806,14.808,14.81,14.812,14.814,14.816,14.818,14.82,14.822,14.824,14.826,14.828,14.83,14.832,14.834,14.836,14.838,14.84,14.842,14.844,14.846,14.848,14.85,14.852,14.854,14.856,14.858,14.86,14.862,14.864,14.866,14.868,14.87,14.872,14.874,14.876,14.878,14.88,14.882,14.884,14.886,14.888,14.89,14.892,14.894,14.896,14.898,14.9,14.902,14.904,14.906,14.908,14.91,14.912,14.914,14.916,14.918,14.92,14.922,14.924,14.926,14.928,14.93,14.932,14.934,14.936,14.938,14.94,14.942,14.944,14.946,14.948,14.95,14.952,14.954,14.956,14.958,14.96,14.962,14.964,14.966,14.968,14.97,14.972,14.974,14.976,14.978,14.98,14.982,14.984,14.986,14.988,14.99,14.992,14.994,14.996,14.998,15,15.002,15.004,15.006,15.008,15.01,15.012,15.014,15.016,15.018,15.02,15.022,15.024,15.026,15.028,15.03,15.032,15.034,15.036,15.038,15.04,15.042,15.044,15.046,15.048,15.05,15.052,15.054,15.056,15.058,15.06,15.062,15.064,15.066,15.068,15.07,15.072,15.074,15.076,15.078,15.08,15.082,15.084,15.086,15.088,15.09,15.092,15.094,15.096,15.098,15.1,15.102,15.104,15.106,15.108,15.11,15.112,15.114,15.116,15.118,15.12,15.122,15.124,15.126,15.128,15.13,15.132,15.134,15.136,15.138,15.14,15.142,15.144,15.146,15.148,15.15,15.152,15.154,15.156,15.158,15.16,15.162,15.164,15.166,15.168,15.17,15.172,15.174,15.176,15.178,15.18,15.182,15.184,15.186,15.188,15.19,15.192,15.194,15.196,15.198,15.2,15.202,15.204,15.206,15.208,15.21,15.212,15.214,15.216,15.218,15.22,15.222,15.224,15.226,15.228,15.23,15.232,15.234,15.236,15.238,15.24,15.242,15.244,15.246,15.248,15.25,15.252,15.254,15.256,15.258,15.26,15.262,15.264,15.266,15.268,15.27,15.272,15.274,15.276,15.278,15.28,15.282,15.284,15.286,15.288,15.29,15.292,15.294,15.296,15.298,15.3,15.302,15.304,15.306,15.308,15.31,15.312,15.314,15.316,15.318,15.32,15.322,15.324,15.326,15.328,15.33,15.332,15.334,15.336,15.338,15.34,15.342,15.344,15.346,15.348,15.35,15.352,15.354,15.356,15.358,15.36,15.362,15.364,15.366,15.368,15.37,15.372,15.374,15.376,15.378,15.38,15.382,15.384,15.386,15.388,15.39,15.392,15.394,15.396,15.398,15.4,15.402,15.404,15.406,15.408,15.41,15.412,15.414,15.416,15.418,15.42,15.422,15.424,15.426,15.428,15.43,15.432,15.434,15.436,15.438,15.44,15.442,15.444,15.446,15.448,15.45,15.452,15.454,15.456,15.458,15.46,15.462,15.464,15.466,15.468,15.47,15.472,15.474,15.476,15.478,15.48,15.482,15.484,15.486,15.488,15.49,15.492,15.494,15.496,15.498,15.5,15.502,15.504,15.506,15.508,15.51,15.512,15.514,15.516,15.518,15.52,15.522,15.524,15.526,15.528,15.53,15.532,15.534,15.536,15.538,15.54,15.542,15.544,15.546,15.548,15.55,15.552,15.554,15.556,15.558,15.56,15.562,15.564,15.566,15.568,15.57,15.572,15.574,15.576,15.578,15.58,15.582,15.584,15.586,15.588,15.59,15.592,15.594,15.596,15.598,15.6,15.602,15.604,15.606,15.608,15.61,15.612,15.614,15.616,15.618,15.62,15.622,15.624,15.626,15.628,15.63,15.632,15.634,15.636,15.638,15.64,15.642,15.644,15.646,15.648,15.65,15.652,15.654,15.656,15.658,15.66,15.662,15.664,15.666,15.668,15.67,15.672,15.674,15.676,15.678,15.68,15.682,15.684,15.686,15.688,15.69,15.692,15.694,15.696,15.698,15.7,15.702,15.704,15.706,15.708,15.71,15.712,15.714,15.716,15.718,15.72,15.722,15.724,15.726,15.728,15.73,15.732,15.734,15.736,15.738,15.74,15.742,15.744,15.746,15.748,15.75,15.752,15.754,15.756,15.758,15.76,15.762,15.764,15.766,15.768,15.77,15.772,15.774,15.776,15.778,15.78,15.782,15.784,15.786,15.788,15.79,15.792,15.794,15.796,15.798,15.8,15.802,15.804,15.806,15.808,15.81,15.812,15.814,15.816,15.818,15.82,15.822,15.824,15.826,15.828,15.83,15.832,15.834,15.836,15.838,15.84,15.842,15.844,15.846,15.848,15.85,15.852,15.854,15.856,15.858,15.86,15.862,15.864,15.866,15.868,15.87,15.872,15.874,15.876,15.878,15.88,15.882,15.884,15.886,15.888,15.89,15.892,15.894,15.896,15.898,15.9,15.902,15.904,15.906,15.908,15.91,15.912,15.914,15.916,15.918,15.92,15.922,15.924,15.926,15.928,15.93,15.932,15.934,15.936,15.938,15.94,15.942,15.944,15.946,15.948,15.95,15.952,15.954,15.956,15.958,15.96,15.962,15.964,15.966,15.968,15.97,15.972,15.974,15.976,15.978,15.98,15.982,15.984,15.986,15.988,15.99,15.992,15.994,15.996,15.998,16,16.002,16.004,16.006,16.008,16.01,16.012,16.014,16.016,16.018,16.02,16.022,16.024,16.026,16.028,16.03,16.032,16.034,16.036,16.038,16.04,16.042,16.044,16.046,16.048,16.05,16.052,16.054,16.056,16.058,16.06,16.062,16.064,16.066,16.068,16.07,16.072,16.074,16.076,16.078,16.08,16.082,16.084,16.086,16.088,16.09,16.092,16.094,16.096,16.098,16.1,16.102,16.104,16.106,16.108,16.11,16.112,16.114,16.116,16.118,16.12,16.122,16.124,16.126,16.128,16.13,16.132,16.134,16.136,16.138,16.14,16.142,16.144,16.146,16.148,16.15,16.152,16.154,16.156,16.158,16.16,16.162,16.164,16.166,16.168,16.17,16.172,16.174,16.176,16.178,16.18,16.182,16.184,16.186,16.188,16.19,16.192,16.194,16.196,16.198,16.2,16.202,16.204,16.206,16.208,16.21,16.212,16.214,16.216,16.218,16.22,16.222,16.224,16.226,16.228,16.23,16.232,16.234,16.236,16.238,16.24,16.242,16.244,16.246,16.248,16.25,16.252,16.254,16.256,16.258,16.26,16.262,16.264,16.266,16.268,16.27,16.272,16.274,16.276,16.278,16.28,16.282,16.284,16.286,16.288,16.29,16.292,16.294,16.296,16.298,16.3,16.302,16.304,16.306,16.308,16.31,16.312,16.314,16.316,16.318,16.32,16.322,16.324,16.326,16.328,16.33,16.332,16.334,16.336,16.338,16.34,16.342,16.344,16.346,16.348,16.35,16.352,16.354,16.356,16.358,16.36,16.362,16.364,16.366,16.368,16.37,16.372,16.374,16.376,16.378,16.38,16.382,16.384,16.386,16.388,16.39,16.392,16.394,16.396,16.398,16.4,16.402,16.404,16.406,16.408,16.41,16.412,16.414,16.416,16.418,16.42,16.422,16.424,16.426,16.428,16.43,16.432,16.434,16.436,16.438,16.44,16.442,16.444,16.446,16.448,16.45,16.452,16.454,16.456,16.458,16.46,16.462,16.464,16.466,16.468,16.47,16.472,16.474,16.476,16.478,16.48,16.482,16.484,16.486,16.488,16.49,16.492,16.494,16.496,16.498,16.5,16.502,16.504,16.506,16.508,16.51,16.512,16.514,16.516,16.518,16.52,16.522,16.524,16.526,16.528,16.53,16.532,16.534,16.536,16.538,16.54,16.542,16.544,16.546,16.548,16.55,16.552,16.554,16.556,16.558,16.56,16.562,16.564,16.566,16.568,16.57,16.572,16.574,16.576,16.578,16.58,16.582,16.584,16.586,16.588,16.59,16.592,16.594,16.596,16.598,16.6,16.602,16.604,16.606,16.608,16.61,16.612,16.614,16.616,16.618,16.62,16.622,16.624,16.626,16.628,16.63,16.632,16.634,16.636,16.638,16.64,16.642,16.644,16.646,16.648,16.65,16.652,16.654,16.656,16.658,16.66,16.662,16.664,16.666,16.668,16.67,16.672,16.674,16.676,16.678,16.68,16.682,16.684,16.686,16.688,16.69,16.692,16.694,16.696,16.698,16.7,16.702,16.704,16.706,16.708,16.71,16.712,16.714,16.716,16.718,16.72,16.722,16.724,16.726,16.728,16.73,16.732,16.734,16.736,16.738,16.74,16.742,16.744,16.746,16.748,16.75,16.752,16.754,16.756,16.758,16.76,16.762,16.764,16.766,16.768,16.77,16.772,16.774,16.776,16.778,16.78,16.782,16.784,16.786,16.788,16.79,16.792,16.794,16.796,16.798,16.8,16.802,16.804,16.806,16.808,16.81,16.812,16.814,16.816,16.818,16.82,16.822,16.824,16.826,16.828,16.83,16.832,16.834,16.836,16.838,16.84,16.842,16.844,16.846,16.848,16.85,16.852,16.854,16.856,16.858,16.86,16.862,16.864,16.866,16.868,16.87,16.872,16.874,16.876,16.878,16.88,16.882,16.884,16.886,16.888,16.89,16.892,16.894,16.896,16.898,16.9,16.902,16.904,16.906,16.908,16.91,16.912,16.914,16.916,16.918,16.92,16.922,16.924,16.926,16.928,16.93,16.932,16.934,16.936,16.938,16.94,16.942,16.944,16.946,16.948,16.95,16.952,16.954,16.956,16.958,16.96,16.962,16.964,16.966,16.968,16.97,16.972,16.974,16.976,16.978,16.98,16.982,16.984,16.986,16.988,16.99,16.992,16.994,16.996,16.998,17,17.002,17.004,17.006,17.008,17.01,17.012,17.014,17.016,17.018,17.02,17.022,17.024,17.026,17.028,17.03,17.032,17.034,17.036,17.038,17.04,17.042,17.044,17.046,17.048,17.05,17.052,17.054,17.056,17.058,17.06,17.062,17.064,17.066,17.068,17.07,17.072,17.074,17.076,17.078,17.08,17.082,17.084,17.086,17.088,17.09,17.092,17.094,17.096,17.098,17.1,17.102,17.104,17.106,17.108,17.11,17.112,17.114,17.116,17.118,17.12,17.122,17.124,17.126,17.128,17.13,17.132,17.134,17.136,17.138,17.14,17.142,17.144,17.146,17.148,17.15,17.152,17.154,17.156,17.158,17.16,17.162,17.164,17.166,17.168,17.17,17.172,17.174,17.176,17.178,17.18,17.182,17.184,17.186,17.188,17.19,17.192,17.194,17.196,17.198,17.2,17.202,17.204,17.206,17.208,17.21,17.212,17.214,17.216,17.218,17.22,17.222,17.224,17.226,17.228,17.23,17.232,17.234,17.236,17.238,17.24,17.242,17.244,17.246,17.248,17.25,17.252,17.254,17.256,17.258,17.26,17.262,17.264,17.266,17.268,17.27,17.272,17.274,17.276,17.278,17.28,17.282,17.284,17.286,17.288,17.29,17.292,17.294,17.296,17.298,17.3,17.302,17.304,17.306,17.308,17.31,17.312,17.314,17.316,17.318,17.32,17.322,17.324,17.326,17.328,17.33,17.332,17.334,17.336,17.338,17.34,17.342,17.344,17.346,17.348,17.35,17.352,17.354,17.356,17.358,17.36,17.362,17.364,17.366,17.368,17.37,17.372,17.374,17.376,17.378,17.38,17.382,17.384,17.386,17.388,17.39,17.392,17.394,17.396,17.398,17.4,17.402,17.404,17.406,17.408,17.41,17.412,17.414,17.416,17.418,17.42,17.422,17.424,17.426,17.428,17.43,17.432,17.434,17.436,17.438,17.44,17.442,17.444,17.446,17.448,17.45,17.452,17.454,17.456,17.458,17.46,17.462,17.464,17.466,17.468,17.47,17.472,17.474,17.476,17.478,17.48,17.482,17.484,17.486,17.488,17.49,17.492,17.494,17.496,17.498,17.5,17.502,17.504,17.506,17.508,17.51,17.512,17.514,17.516,17.518,17.52,17.522,17.524,17.526,17.528,17.53,17.532,17.534,17.536,17.538,17.54,17.542,17.544,17.546,17.548,17.55,17.552,17.554,17.556,17.558,17.56,17.562,17.564,17.566,17.568,17.57,17.572,17.574,17.576,17.578,17.58,17.582,17.584,17.586,17.588,17.59,17.592,17.594,17.596,17.598,17.6,17.602,17.604,17.606,17.608,17.61,17.612,17.614,17.616,17.618,17.62,17.622,17.624,17.626,17.628,17.63,17.632,17.634,17.636,17.638,17.64,17.642,17.644,17.646,17.648,17.65,17.652,17.654,17.656,17.658,17.66,17.662,17.664,17.666,17.668,17.67,17.672,17.674,17.676,17.678,17.68,17.682,17.684,17.686,17.688,17.69,17.692,17.694,17.696,17.698,17.7,17.702,17.704,17.706,17.708,17.71,17.712,17.714,17.716,17.718,17.72,17.722,17.724,17.726,17.728,17.73,17.732,17.734,17.736,17.738,17.74,17.742,17.744,17.746,17.748,17.75,17.752,17.754,17.756,17.758,17.76,17.762,17.764,17.766,17.768,17.77,17.772,17.774,17.776,17.778,17.78,17.782,17.784,17.786,17.788,17.79,17.792,17.794,17.796,17.798,17.8,17.802,17.804,17.806,17.808,17.81,17.812,17.814,17.816,17.818,17.82,17.822,17.824,17.826,17.828,17.83,17.832,17.834,17.836,17.838,17.84,17.842,17.844,17.846,17.848,17.85,17.852,17.854,17.856,17.858,17.86,17.862,17.864,17.866,17.868,17.87,17.872,17.874,17.876,17.878,17.88,17.882,17.884,17.886,17.888,17.89,17.892,17.894,17.896,17.898,17.9,17.902,17.904,17.906,17.908,17.91,17.912,17.914,17.916,17.918,17.92,17.922,17.924,17.926,17.928,17.93,17.932,17.934,17.936,17.938,17.94,17.942,17.944,17.946,17.948,17.95,17.952,17.954,17.956,17.958,17.96,17.962,17.964,17.966,17.968,17.97,17.972,17.974,17.976,17.978,17.98,17.982,17.984,17.986,17.988,17.99,17.992,17.994,17.996,17.998,18,18.002,18.004,18.006,18.008,18.01,18.012,18.014,18.016,18.018,18.02,18.022,18.024,18.026,18.028,18.03,18.032,18.034,18.036,18.038,18.04,18.042,18.044,18.046,18.048,18.05,18.052,18.054,18.056,18.058,18.06,18.062,18.064,18.066,18.068,18.07,18.072,18.074,18.076,18.078,18.08,18.082,18.084,18.086,18.088,18.09,18.092,18.094,18.096,18.098,18.1,18.102,18.104,18.106,18.108,18.11,18.112,18.114,18.116,18.118,18.12,18.122,18.124,18.126,18.128,18.13,18.132,18.134,18.136,18.138,18.14,18.142,18.144,18.146,18.148,18.15,18.152,18.154,18.156,18.158,18.16,18.162,18.164,18.166,18.168,18.17,18.172,18.174,18.176,18.178,18.18,18.182,18.184,18.186,18.188,18.19,18.192,18.194,18.196,18.198,18.2,18.202,18.204,18.206,18.208,18.21,18.212,18.214,18.216,18.218,18.22,18.222,18.224,18.226,18.228,18.23,18.232,18.234,18.236,18.238,18.24,18.242,18.244,18.246,18.248,18.25,18.252,18.254,18.256,18.258,18.26,18.262,18.264,18.266,18.268,18.27,18.272,18.274,18.276,18.278,18.28,18.282,18.284,18.286,18.288,18.29,18.292,18.294,18.296,18.298,18.3,18.302,18.304,18.306,18.308,18.31,18.312,18.314,18.316,18.318,18.32,18.322,18.324,18.326,18.328,18.33,18.332,18.334,18.336,18.338,18.34,18.342,18.344,18.346,18.348,18.35,18.352,18.354,18.356,18.358,18.36,18.362,18.364,18.366,18.368,18.37,18.372,18.374,18.376,18.378,18.38,18.382,18.384,18.386,18.388,18.39,18.392,18.394,18.396,18.398,18.4,18.402,18.404,18.406,18.408,18.41,18.412,18.414,18.416,18.418,18.42,18.422,18.424,18.426,18.428,18.43,18.432,18.434,18.436,18.438,18.44,18.442,18.444,18.446,18.448,18.45,18.452,18.454,18.456,18.458,18.46,18.462,18.464,18.466,18.468,18.47,18.472,18.474,18.476,18.478,18.48,18.482,18.484,18.486,18.488,18.49,18.492,18.494,18.496,18.498,18.5,18.502,18.504,18.506,18.508,18.51,18.512,18.514,18.516,18.518,18.52,18.522,18.524,18.526,18.528,18.53,18.532,18.534,18.536,18.538,18.54,18.542,18.544,18.546,18.548,18.55,18.552,18.554,18.556,18.558,18.56,18.562,18.564,18.566,18.568,18.57,18.572,18.574,18.576,18.578,18.58,18.582,18.584,18.586,18.588,18.59,18.592,18.594,18.596,18.598,18.6,18.602,18.604,18.606,18.608,18.61,18.612,18.614,18.616,18.618,18.62,18.622,18.624,18.626,18.628,18.63,18.632,18.634,18.636,18.638,18.64,18.642,18.644,18.646,18.648,18.65,18.652,18.654,18.656,18.658,18.66,18.662,18.664,18.666,18.668,18.67,18.672,18.674,18.676,18.678,18.68,18.682,18.684,18.686,18.688,18.69,18.692,18.694,18.696,18.698,18.7,18.702,18.704,18.706,18.708,18.71,18.712,18.714,18.716,18.718,18.72,18.722,18.724,18.726,18.728,18.73,18.732,18.734,18.736,18.738,18.74,18.742,18.744,18.746,18.748,18.75,18.752,18.754,18.756,18.758,18.76,18.762,18.764,18.766,18.768,18.77,18.772,18.774,18.776,18.778,18.78,18.782,18.784,18.786,18.788,18.79,18.792,18.794,18.796,18.798,18.8,18.802,18.804,18.806,18.808,18.81,18.812,18.814,18.816,18.818,18.82,18.822,18.824,18.826,18.828,18.83,18.832,18.834,18.836,18.838,18.84,18.842,18.844,18.846,18.848,18.85,18.852,18.854,18.856,18.858,18.86,18.862,18.864,18.866,18.868,18.87,18.872,18.874,18.876,18.878,18.88,18.882,18.884,18.886,18.888,18.89,18.892,18.894,18.896,18.898,18.9,18.902,18.904,18.906,18.908,18.91,18.912,18.914,18.916,18.918,18.92,18.922,18.924,18.926,18.928,18.93,18.932,18.934,18.936,18.938,18.94,18.942,18.944,18.946,18.948,18.95,18.952,18.954,18.956,18.958,18.96,18.962,18.964,18.966,18.968,18.97,18.972,18.974,18.976,18.978,18.98,18.982,18.984,18.986,18.988,18.99,18.992,18.994,18.996,18.998,19,19.002,19.004,19.006,19.008,19.01,19.012,19.014,19.016,19.018,19.02,19.022,19.024,19.026,19.028,19.03,19.032,19.034,19.036,19.038,19.04,19.042,19.044,19.046,19.048,19.05,19.052,19.054,19.056,19.058,19.06,19.062,19.064,19.066,19.068,19.07,19.072,19.074,19.076,19.078,19.08,19.082,19.084,19.086,19.088,19.09,19.092,19.094,19.096,19.098,19.1,19.102,19.104,19.106,19.108,19.11,19.112,19.114,19.116,19.118,19.12,19.122,19.124,19.126,19.128,19.13,19.132,19.134,19.136,19.138,19.14,19.142,19.144,19.146,19.148,19.15,19.152,19.154,19.156,19.158,19.16,19.162,19.164,19.166,19.168,19.17,19.172,19.174,19.176,19.178,19.18,19.182,19.184,19.186,19.188,19.19,19.192,19.194,19.196,19.198,19.2,19.202,19.204,19.206,19.208,19.21,19.212,19.214,19.216,19.218,19.22,19.222,19.224,19.226,19.228,19.23,19.232,19.234,19.236,19.238,19.24,19.242,19.244,19.246,19.248,19.25,19.252,19.254,19.256,19.258,19.26,19.262,19.264,19.266,19.268,19.27,19.272,19.274,19.276,19.278,19.28,19.282,19.284,19.286,19.288,19.29,19.292,19.294,19.296,19.298,19.3,19.302,19.304,19.306,19.308,19.31,19.312,19.314,19.316,19.318,19.32,19.322,19.324,19.326,19.328,19.33,19.332,19.334,19.336,19.338,19.34,19.342,19.344,19.346,19.348,19.35,19.352,19.354,19.356,19.358,19.36,19.362,19.364,19.366,19.368,19.37,19.372,19.374,19.376,19.378,19.38,19.382,19.384,19.386,19.388,19.39,19.392,19.394,19.396,19.398,19.4,19.402,19.404,19.406,19.408,19.41,19.412,19.414,19.416,19.418,19.42,19.422,19.424,19.426,19.428,19.43,19.432,19.434,19.436,19.438,19.44,19.442,19.444,19.446,19.448,19.45,19.452,19.454,19.456,19.458,19.46,19.462,19.464,19.466,19.468,19.47,19.472,19.474,19.476,19.478,19.48,19.482,19.484,19.486,19.488,19.49,19.492,19.494,19.496,19.498,19.5,19.502,19.504,19.506,19.508,19.51,19.512,19.514,19.516,19.518,19.52,19.522,19.524,19.526,19.528,19.53,19.532,19.534,19.536,19.538,19.54,19.542,19.544,19.546,19.548,19.55,19.552,19.554,19.556,19.558,19.56,19.562,19.564,19.566,19.568,19.57,19.572,19.574,19.576,19.578,19.58,19.582,19.584,19.586,19.588,19.59,19.592,19.594,19.596,19.598,19.6,19.602,19.604,19.606,19.608,19.61,19.612,19.614,19.616,19.618,19.62,19.622,19.624,19.626,19.628,19.63,19.632,19.634,19.636,19.638,19.64,19.642,19.644,19.646,19.648,19.65,19.652,19.654,19.656,19.658,19.66,19.662,19.664,19.666,19.668,19.67,19.672,19.674,19.676,19.678,19.68,19.682,19.684,19.686,19.688,19.69,19.692,19.694,19.696,19.698,19.7,19.702,19.704,19.706,19.708,19.71,19.712,19.714,19.716,19.718,19.72,19.722,19.724,19.726,19.728,19.73,19.732,19.734,19.736,19.738,19.74,19.742,19.744,19.746,19.748,19.75,19.752,19.754,19.756,19.758,19.76,19.762,19.764,19.766,19.768,19.77,19.772,19.774,19.776,19.778,19.78,19.782,19.784,19.786,19.788,19.79,19.792,19.794,19.796,19.798,19.8,19.802,19.804,19.806,19.808,19.81,19.812,19.814,19.816,19.818,19.82,19.822,19.824,19.826,19.828,19.83,19.832,19.834,19.836,19.838,19.84,19.842,19.844,19.846,19.848,19.85,19.852,19.854,19.856,19.858,19.86,19.862,19.864,19.866,19.868,19.87,19.872,19.874,19.876,19.878,19.88,19.882,19.884,19.886,19.888,19.89,19.892,19.894,19.896,19.898,19.9,19.902,19.904,19.906,19.908,19.91,19.912,19.914,19.916,19.918,19.92,19.922,19.924,19.926,19.928,19.93,19.932,19.934,19.936,19.938,19.94,19.942,19.944,19.946,19.948,19.95,19.952,19.954,19.956,19.958,19.96,19.962,19.964,19.966,19.968,19.97,19.972,19.974,19.976,19.978,19.98,19.982,19.984,19.986,19.988,19.99,19.992,19.994,19.996,19.998,20,20.002,20.004,20.006,20.008,20.01,20.012,20.014,20.016,20.018,20.02,20.022,20.024,20.026,20.028,20.03,20.032,20.034,20.036,20.038,20.04,20.042,20.044,20.046,20.048,20.05,20.052,20.054,20.056,20.058,20.06,20.062,20.064,20.066,20.068,20.07,20.072,20.074,20.076,20.078,20.08,20.082,20.084,20.086,20.088,20.09,20.092,20.094,20.096,20.098,20.1,20.102,20.104,20.106,20.108,20.11,20.112,20.114,20.116,20.118,20.12,20.122,20.124,20.126,20.128,20.13,20.132,20.134,20.136,20.138,20.14,20.142,20.144,20.146,20.148,20.15,20.152,20.154,20.156,20.158,20.16,20.162,20.164,20.166,20.168,20.17,20.172,20.174,20.176,20.178,20.18,20.182,20.184,20.186,20.188,20.19,20.192,20.194,20.196,20.198,20.2,20.202,20.204,20.206,20.208,20.21,20.212,20.214,20.216,20.218,20.22,20.222,20.224,20.226,20.228,20.23,20.232,20.234,20.236,20.238,20.24,20.242,20.244,20.246,20.248,20.25,20.252,20.254,20.256,20.258,20.26,20.262,20.264,20.266,20.268,20.27,20.272,20.274,20.276,20.278,20.28,20.282,20.284,20.286,20.288,20.29,20.292,20.294,20.296,20.298,20.3,20.302,20.304,20.306,20.308,20.31,20.312,20.314,20.316,20.318,20.32,20.322,20.324,20.326,20.328,20.33,20.332,20.334,20.336,20.338,20.34,20.342,20.344,20.346,20.348,20.35,20.352,20.354,20.356,20.358,20.36,20.362,20.364,20.366,20.368,20.37,20.372,20.374,20.376,20.378,20.38,20.382,20.384,20.386,20.388,20.39,20.392,20.394,20.396,20.398,20.4,20.402,20.404,20.406,20.408,20.41,20.412,20.414,20.416,20.418,20.42,20.422,20.424,20.426,20.428,20.43,20.432,20.434,20.436,20.438,20.44,20.442,20.444,20.446,20.448,20.45,20.452,20.454,20.456,20.458,20.46,20.462,20.464,20.466,20.468,20.47,20.472,20.474,20.476,20.478,20.48,20.482,20.484,20.486,20.488,20.49,20.492,20.494,20.496,20.498,20.5,20.502,20.504,20.506,20.508,20.51,20.512,20.514,20.516,20.518,20.52,20.522,20.524,20.526,20.528,20.53,20.532,20.534,20.536,20.538,20.54,20.542,20.544,20.546,20.548,20.55,20.552,20.554,20.556,20.558,20.56,20.562,20.564,20.566,20.568,20.57,20.572,20.574,20.576,20.578,20.58,20.582,20.584,20.586,20.588,20.59,20.592,20.594,20.596,20.598,20.6,20.602,20.604,20.606,20.608,20.61,20.612,20.614,20.616,20.618,20.62,20.622,20.624,20.626,20.628,20.63,20.632,20.634,20.636,20.638,20.64,20.642,20.644,20.646,20.648,20.65,20.652,20.654,20.656,20.658,20.66,20.662,20.664,20.666,20.668,20.67,20.672,20.674,20.676,20.678,20.68,20.682,20.684,20.686,20.688,20.69,20.692,20.694,20.696,20.698,20.7,20.702,20.704,20.706,20.708,20.71,20.712,20.714,20.716,20.718,20.72,20.722,20.724,20.726,20.728,20.73,20.732,20.734,20.736,20.738,20.74,20.742,20.744,20.746,20.748,20.75,20.752,20.754,20.756,20.758,20.76,20.762,20.764,20.766,20.768,20.77,20.772,20.774,20.776,20.778,20.78,20.782,20.784,20.786,20.788,20.79,20.792,20.794,20.796,20.798,20.8,20.802,20.804,20.806,20.808,20.81,20.812,20.814,20.816,20.818,20.82,20.822,20.824,20.826,20.828,20.83,20.832,20.834,20.836,20.838,20.84,20.842,20.844,20.846,20.848,20.85,20.852,20.854,20.856,20.858,20.86,20.862,20.864,20.866,20.868,20.87,20.872,20.874,20.876,20.878,20.88,20.882,20.884,20.886,20.888,20.89,20.892,20.894,20.896,20.898,20.9,20.902,20.904,20.906,20.908,20.91,20.912,20.914,20.916,20.918,20.92,20.922,20.924,20.926,20.928,20.93,20.932,20.934,20.936,20.938,20.94,20.942,20.944,20.946,20.948,20.95,20.952,20.954,20.956,20.958,20.96,20.962,20.964,20.966,20.968,20.97,20.972,20.974,20.976,20.978,20.98,20.982,20.984,20.986,20.988,20.99,20.992,20.994,20.996,20.998,21,21.002,21.004,21.006,21.008,21.01,21.012,21.014,21.016,21.018,21.02,21.022,21.024,21.026,21.028,21.03,21.032,21.034,21.036,21.038,21.04,21.042,21.044,21.046,21.048,21.05,21.052,21.054,21.056,21.058,21.06,21.062,21.064,21.066,21.068,21.07,21.072,21.074,21.076,21.078,21.08,21.082,21.084,21.086,21.088,21.09,21.092,21.094,21.096,21.098,21.1,21.102,21.104,21.106,21.108,21.11,21.112,21.114,21.116,21.118,21.12,21.122,21.124,21.126,21.128,21.13,21.132,21.134,21.136,21.138,21.14,21.142,21.144,21.146,21.148,21.15,21.152,21.154,21.156,21.158,21.16,21.162,21.164,21.166,21.168,21.17,21.172,21.174,21.176,21.178,21.18,21.182,21.184,21.186,21.188,21.19,21.192,21.194,21.196,21.198,21.2,21.202,21.204,21.206,21.208,21.21,21.212,21.214,21.216,21.218,21.22,21.222,21.224,21.226,21.228,21.23,21.232,21.234,21.236,21.238,21.24,21.242,21.244,21.246,21.248,21.25,21.252,21.254,21.256,21.258,21.26,21.262,21.264,21.266,21.268,21.27,21.272,21.274,21.276,21.278,21.28,21.282,21.284,21.286,21.288,21.29,21.292,21.294,21.296,21.298,21.3,21.302,21.304,21.306,21.308,21.31,21.312,21.314,21.316,21.318,21.32,21.322,21.324,21.326,21.328,21.33,21.332,21.334,21.336,21.338,21.34,21.342,21.344,21.346,21.348,21.35,21.352,21.354,21.356,21.358,21.36,21.362,21.364,21.366,21.368,21.37,21.372,21.374,21.376,21.378,21.38,21.382,21.384,21.386,21.388,21.39,21.392,21.394,21.396,21.398,21.4,21.402,21.404,21.406,21.408,21.41,21.412,21.414,21.416,21.418,21.42,21.422,21.424,21.426,21.428,21.43,21.432,21.434,21.436,21.438,21.44,21.442,21.444,21.446,21.448,21.45,21.452,21.454,21.456,21.458,21.46,21.462,21.464,21.466,21.468,21.47,21.472,21.474,21.476,21.478,21.48,21.482,21.484,21.486,21.488,21.49,21.492,21.494,21.496,21.498,21.5,21.502,21.504,21.506,21.508,21.51,21.512,21.514,21.516,21.518,21.52,21.522,21.524,21.526,21.528,21.53,21.532,21.534,21.536,21.538,21.54,21.542,21.544,21.546,21.548,21.55,21.552,21.554,21.556,21.558,21.56,21.562,21.564,21.566,21.568,21.57,21.572,21.574,21.576,21.578,21.58,21.582,21.584,21.586,21.588,21.59,21.592,21.594,21.596,21.598,21.6,21.602,21.604,21.606,21.608,21.61,21.612,21.614,21.616,21.618,21.62,21.622,21.624,21.626,21.628,21.63,21.632,21.634,21.636,21.638,21.64,21.642,21.644,21.646,21.648,21.65,21.652,21.654,21.656,21.658,21.66,21.662,21.664,21.666,21.668,21.67,21.672,21.674,21.676,21.678,21.68,21.682,21.684,21.686,21.688,21.69,21.692,21.694,21.696,21.698,21.7,21.702,21.704,21.706,21.708,21.71,21.712,21.714,21.716,21.718,21.72,21.722,21.724,21.726,21.728,21.73,21.732,21.734,21.736,21.738,21.74,21.742,21.744,21.746,21.748,21.75,21.752,21.754,21.756,21.758,21.76,21.762,21.764,21.766,21.768,21.77,21.772,21.774,21.776,21.778,21.78,21.782,21.784,21.786,21.788,21.79,21.792,21.794,21.796,21.798,21.8,21.802,21.804,21.806,21.808,21.81,21.812,21.814,21.816,21.818,21.82,21.822,21.824,21.826,21.828,21.83,21.832,21.834,21.836,21.838,21.84,21.842,21.844,21.846,21.848,21.85,21.852,21.854,21.856,21.858,21.86,21.862,21.864,21.866,21.868,21.87,21.872,21.874,21.876,21.878,21.88,21.882,21.884,21.886,21.888,21.89,21.892,21.894,21.896,21.898,21.9,21.902,21.904,21.906,21.908,21.91,21.912,21.914,21.916,21.918,21.92,21.922,21.924,21.926,21.928,21.93,21.932,21.934,21.936,21.938,21.94,21.942,21.944,21.946,21.948,21.95,21.952,21.954,21.956,21.958,21.96,21.962,21.964,21.966,21.968,21.97,21.972,21.974,21.976,21.978,21.98,21.982,21.984,21.986,21.988,21.99,21.992,21.994,21.996,21.998,22,22.002,22.004,22.006,22.008,22.01,22.012,22.014,22.016,22.018,22.02,22.022,22.024,22.026,22.028,22.03,22.032,22.034,22.036,22.038,22.04,22.042,22.044,22.046,22.048,22.05,22.052,22.054,22.056,22.058,22.06,22.062,22.064,22.066,22.068,22.07,22.072,22.074,22.076,22.078,22.08,22.082,22.084,22.086,22.088,22.09,22.092,22.094,22.096,22.098,22.1,22.102,22.104,22.106,22.108,22.11,22.112,22.114,22.116,22.118,22.12,22.122,22.124,22.126,22.128,22.13,22.132,22.134,22.136,22.138,22.14,22.142,22.144,22.146,22.148,22.15,22.152,22.154,22.156,22.158,22.16,22.162,22.164,22.166,22.168,22.17,22.172,22.174,22.176,22.178,22.18,22.182,22.184,22.186,22.188,22.19,22.192,22.194,22.196,22.198,22.2,22.202,22.204,22.206,22.208,22.21,22.212,22.214,22.216,22.218,22.22,22.222,22.224,22.226,22.228,22.23,22.232,22.234,22.236,22.238,22.24,22.242,22.244,22.246,22.248,22.25,22.252,22.254,22.256,22.258,22.26,22.262,22.264,22.266,22.268,22.27,22.272,22.274,22.276,22.278,22.28,22.282,22.284,22.286,22.288,22.29,22.292,22.294,22.296,22.298,22.3,22.302,22.304,22.306,22.308,22.31,22.312,22.314,22.316,22.318,22.32,22.322,22.324,22.326,22.328,22.33,22.332,22.334,22.336,22.338,22.34,22.342,22.344,22.346,22.348,22.35,22.352,22.354,22.356,22.358,22.36,22.362,22.364,22.366,22.368,22.37,22.372,22.374,22.376,22.378,22.38,22.382,22.384,22.386,22.388,22.39,22.392,22.394,22.396,22.398,22.4,22.402,22.404,22.406,22.408,22.41,22.412,22.414,22.416,22.418,22.42,22.422,22.424,22.426,22.428,22.43,22.432,22.434,22.436,22.438,22.44,22.442,22.444,22.446,22.448,22.45,22.452,22.454,22.456,22.458,22.46,22.462,22.464,22.466,22.468,22.47,22.472,22.474,22.476,22.478,22.48,22.482,22.484,22.486,22.488,22.49,22.492,22.494,22.496,22.498,22.5,22.502,22.504,22.506,22.508,22.51,22.512,22.514,22.516,22.518,22.52,22.522,22.524,22.526,22.528,22.53,22.532,22.534,22.536,22.538,22.54,22.542,22.544,22.546,22.548,22.55,22.552,22.554,22.556,22.558,22.56,22.562,22.564,22.566,22.568,22.57,22.572,22.574,22.576,22.578,22.58,22.582,22.584,22.586,22.588,22.59,22.592,22.594,22.596,22.598,22.6,22.602,22.604,22.606,22.608,22.61,22.612,22.614,22.616,22.618,22.62,22.622,22.624,22.626,22.628,22.63,22.632,22.634,22.636,22.638,22.64,22.642,22.644,22.646,22.648,22.65,22.652,22.654,22.656,22.658,22.66,22.662,22.664,22.666,22.668,22.67,22.672,22.674,22.676,22.678,22.68,22.682,22.684,22.686,22.688,22.69,22.692,22.694,22.696,22.698,22.7,22.702,22.704,22.706,22.708,22.71,22.712,22.714,22.716,22.718,22.72,22.722,22.724,22.726,22.728,22.73,22.732,22.734,22.736,22.738,22.74,22.742,22.744,22.746,22.748,22.75,22.752,22.754,22.756,22.758,22.76,22.762,22.764,22.766,22.768,22.77,22.772,22.774,22.776,22.778,22.78,22.782,22.784,22.786,22.788,22.79,22.792,22.794,22.796,22.798,22.8,22.802,22.804,22.806,22.808,22.81,22.812,22.814,22.816,22.818,22.82,22.822,22.824,22.826,22.828,22.83,22.832,22.834,22.836,22.838,22.84,22.842,22.844,22.846,22.848,22.85,22.852,22.854,22.856,22.858,22.86,22.862,22.864,22.866,22.868,22.87,22.872,22.874,22.876,22.878,22.88,22.882,22.884,22.886,22.888,22.89,22.892,22.894,22.896,22.898,22.9,22.902,22.904,22.906,22.908,22.91,22.912,22.914,22.916,22.918,22.92,22.922,22.924,22.926,22.928,22.93,22.932,22.934,22.936,22.938,22.94,22.942,22.944,22.946,22.948,22.95,22.952,22.954,22.956,22.958,22.96,22.962,22.964,22.966,22.968,22.97,22.972,22.974,22.976,22.978,22.98,22.982,22.984,22.986,22.988,22.99,22.992,22.994,22.996,22.998,23,23.002,23.004,23.006,23.008,23.01,23.012,23.014,23.016,23.018,23.02,23.022,23.024,23.026,23.028,23.03,23.032,23.034,23.036,23.038,23.04,23.042,23.044,23.046,23.048,23.05,23.052,23.054,23.056,23.058,23.06,23.062,23.064,23.066,23.068,23.07,23.072,23.074,23.076,23.078,23.08,23.082,23.084,23.086,23.088,23.09,23.092,23.094,23.096,23.098,23.1,23.102,23.104,23.106,23.108,23.11,23.112,23.114,23.116,23.118,23.12,23.122,23.124,23.126,23.128,23.13,23.132,23.134,23.136,23.138,23.14,23.142,23.144,23.146,23.148,23.15,23.152,23.154,23.156,23.158,23.16,23.162,23.164,23.166,23.168,23.17,23.172,23.174,23.176,23.178,23.18,23.182,23.184,23.186,23.188,23.19,23.192,23.194,23.196,23.198,23.2,23.202,23.204,23.206,23.208,23.21,23.212,23.214,23.216,23.218,23.22,23.222,23.224,23.226,23.228,23.23,23.232,23.234,23.236,23.238,23.24,23.242,23.244,23.246,23.248,23.25,23.252,23.254,23.256,23.258,23.26,23.262,23.264,23.266,23.268,23.27,23.272,23.274,23.276,23.278,23.28,23.282,23.284,23.286,23.288,23.29,23.292,23.294,23.296,23.298,23.3,23.302,23.304,23.306,23.308,23.31,23.312,23.314,23.316,23.318,23.32,23.322,23.324,23.326,23.328,23.33,23.332,23.334,23.336,23.338,23.34,23.342,23.344,23.346,23.348,23.35,23.352,23.354,23.356,23.358,23.36,23.362,23.364,23.366,23.368,23.37,23.372,23.374,23.376,23.378,23.38,23.382,23.384,23.386,23.388,23.39,23.392,23.394,23.396,23.398,23.4,23.402,23.404,23.406,23.408,23.41,23.412,23.414,23.416,23.418,23.42,23.422,23.424,23.426,23.428,23.43,23.432,23.434,23.436,23.438,23.44,23.442,23.444,23.446,23.448,23.45,23.452,23.454,23.456,23.458,23.46,23.462,23.464,23.466,23.468,23.47,23.472,23.474,23.476,23.478,23.48,23.482,23.484,23.486,23.488,23.49,23.492,23.494,23.496,23.498,23.5,23.502,23.504,23.506,23.508,23.51,23.512,23.514,23.516,23.518,23.52,23.522,23.524,23.526,23.528,23.53,23.532,23.534,23.536,23.538,23.54,23.542,23.544,23.546,23.548,23.55,23.552,23.554,23.556,23.558,23.56,23.562,23.564,23.566,23.568,23.57,23.572,23.574,23.576,23.578,23.58,23.582,23.584,23.586,23.588,23.59,23.592,23.594,23.596,23.598,23.6,23.602,23.604,23.606,23.608,23.61,23.612,23.614,23.616,23.618,23.62,23.622,23.624,23.626,23.628,23.63,23.632,23.634,23.636,23.638,23.64,23.642,23.644,23.646,23.648,23.65,23.652,23.654,23.656,23.658,23.66,23.662,23.664,23.666,23.668,23.67,23.672,23.674,23.676,23.678,23.68,23.682,23.684,23.686,23.688,23.69,23.692,23.694,23.696,23.698,23.7,23.702,23.704,23.706,23.708,23.71,23.712,23.714,23.716,23.718,23.72,23.722,23.724,23.726,23.728,23.73,23.732,23.734,23.736,23.738,23.74,23.742,23.744,23.746,23.748,23.75,23.752,23.754,23.756,23.758,23.76,23.762,23.764,23.766,23.768,23.77,23.772,23.774,23.776,23.778,23.78,23.782,23.784,23.786,23.788,23.79,23.792,23.794,23.796,23.798,23.8,23.802,23.804,23.806,23.808,23.81,23.812,23.814,23.816,23.818,23.82,23.822,23.824,23.826,23.828,23.83,23.832,23.834,23.836,23.838,23.84,23.842,23.844,23.846,23.848,23.85,23.852,23.854,23.856,23.858,23.86,23.862,23.864,23.866,23.868,23.87,23.872,23.874,23.876,23.878,23.88,23.882,23.884,23.886,23.888,23.89,23.892,23.894,23.896,23.898,23.9,23.902,23.904,23.906,23.908,23.91,23.912,23.914,23.916,23.918,23.92,23.922,23.924,23.926,23.928,23.93,23.932,23.934,23.936,23.938,23.94,23.942,23.944,23.946,23.948,23.95,23.952,23.954,23.956,23.958,23.96,23.962,23.964,23.966,23.968,23.97,23.972,23.974,23.976,23.978,23.98,23.982,23.984,23.986,23.988,23.99,23.992,23.994,23.996,23.998,24,24.002,24.004,24.006,24.008,24.01,24.012,24.014,24.016,24.018,24.02,24.022,24.024,24.026,24.028,24.03,24.032,24.034,24.036,24.038,24.04,24.042,24.044,24.046,24.048,24.05,24.052,24.054,24.056,24.058,24.06,24.062,24.064,24.066,24.068,24.07,24.072,24.074,24.076,24.078,24.08,24.082,24.084,24.086,24.088,24.09,24.092,24.094,24.096,24.098,24.1,24.102,24.104,24.106,24.108,24.11,24.112,24.114,24.116,24.118,24.12,24.122,24.124,24.126,24.128,24.13,24.132,24.134,24.136,24.138,24.14,24.142,24.144,24.146,24.148,24.15,24.152,24.154,24.156,24.158,24.16,24.162,24.164,24.166,24.168,24.17,24.172,24.174,24.176,24.178,24.18,24.182,24.184,24.186,24.188,24.19,24.192,24.194,24.196,24.198,24.2,24.202,24.204,24.206,24.208,24.21,24.212,24.214,24.216,24.218,24.22,24.222,24.224,24.226,24.228,24.23,24.232,24.234,24.236,24.238,24.24,24.242,24.244,24.246,24.248,24.25,24.252,24.254,24.256,24.258,24.26,24.262,24.264,24.266,24.268,24.27,24.272,24.274,24.276,24.278,24.28,24.282,24.284,24.286,24.288,24.29,24.292,24.294,24.296,24.298,24.3,24.302,24.304,24.306,24.308,24.31,24.312,24.314,24.316,24.318,24.32,24.322,24.324,24.326,24.328,24.33,24.332,24.334,24.336,24.338,24.34,24.342,24.344,24.346,24.348,24.35,24.352,24.354,24.356,24.358,24.36,24.362,24.364,24.366,24.368,24.37,24.372,24.374,24.376,24.378,24.38,24.382,24.384,24.386,24.388,24.39,24.392,24.394,24.396,24.398,24.4,24.402,24.404,24.406,24.408,24.41,24.412,24.414,24.416,24.418,24.42,24.422,24.424,24.426,24.428,24.43,24.432,24.434,24.436,24.438,24.44,24.442,24.444,24.446,24.448,24.45,24.452,24.454,24.456,24.458,24.46,24.462,24.464,24.466,24.468,24.47,24.472,24.474,24.476,24.478,24.48,24.482,24.484,24.486,24.488,24.49,24.492,24.494,24.496,24.498,24.5,24.502,24.504,24.506,24.508,24.51,24.512,24.514,24.516,24.518,24.52,24.522,24.524,24.526,24.528,24.53,24.532,24.534,24.536,24.538,24.54,24.542,24.544,24.546,24.548,24.55,24.552,24.554,24.556,24.558,24.56,24.562,24.564,24.566,24.568,24.57,24.572,24.574,24.576,24.578,24.58,24.582,24.584,24.586,24.588,24.59,24.592,24.594,24.596,24.598,24.6,24.602,24.604,24.606,24.608,24.61,24.612,24.614,24.616,24.618,24.62,24.622,24.624,24.626,24.628,24.63,24.632,24.634,24.636,24.638,24.64,24.642,24.644,24.646,24.648,24.65,24.652,24.654,24.656,24.658,24.66,24.662,24.664,24.666,24.668,24.67,24.672,24.674,24.676,24.678,24.68,24.682,24.684,24.686,24.688,24.69,24.692,24.694,24.696,24.698,24.7,24.702,24.704,24.706,24.708,24.71,24.712,24.714,24.716,24.718,24.72,24.722,24.724,24.726,24.728,24.73,24.732,24.734,24.736,24.738,24.74,24.742,24.744,24.746,24.748,24.75,24.752,24.754,24.756,24.758,24.76,24.762,24.764,24.766,24.768,24.77,24.772,24.774,24.776,24.778,24.78,24.782,24.784,24.786,24.788,24.79,24.792,24.794,24.796,24.798,24.8,24.802,24.804,24.806,24.808,24.81,24.812,24.814,24.816,24.818,24.82,24.822,24.824,24.826,24.828,24.83,24.832,24.834,24.836,24.838,24.84,24.842,24.844,24.846,24.848,24.85,24.852,24.854,24.856,24.858,24.86,24.862,24.864,24.866,24.868,24.87,24.872,24.874,24.876,24.878,24.88,24.882,24.884,24.886,24.888,24.89,24.892,24.894,24.896,24.898,24.9,24.902,24.904,24.906,24.908,24.91,24.912,24.914,24.916,24.918,24.92,24.922,24.924,24.926,24.928,24.93,24.932,24.934,24.936,24.938,24.94,24.942,24.944,24.946,24.948,24.95,24.952,24.954,24.956,24.958,24.96,24.962,24.964,24.966,24.968,24.97,24.972,24.974,24.976,24.978,24.98,24.982,24.984,24.986,24.988,24.99,24.992,24.994,24.996,24.998,25,25.002,25.004,25.006,25.008,25.01,25.012,25.014,25.016,25.018,25.02,25.022,25.024,25.026,25.028,25.03,25.032,25.034,25.036,25.038,25.04,25.042,25.044,25.046,25.048,25.05,25.052,25.054,25.056,25.058,25.06,25.062,25.064,25.066,25.068,25.07,25.072,25.074,25.076,25.078,25.08,25.082,25.084,25.086,25.088,25.09,25.092,25.094,25.096,25.098,25.1,25.102,25.104,25.106,25.108,25.11,25.112,25.114,25.116,25.118,25.12,25.122,25.124,25.126,25.128,25.13,25.132,25.134,25.136,25.138,25.14,25.142,25.144,25.146,25.148,25.15,25.152,25.154,25.156,25.158,25.16,25.162,25.164,25.166,25.168,25.17,25.172,25.174,25.176,25.178,25.18,25.182,25.184,25.186,25.188,25.19,25.192,25.194,25.196,25.198,25.2,25.202,25.204,25.206,25.208,25.21,25.212,25.214,25.216,25.218,25.22,25.222,25.224,25.226,25.228,25.23,25.232,25.234,25.236,25.238,25.24,25.242,25.244,25.246,25.248,25.25,25.252,25.254,25.256,25.258,25.26,25.262,25.264,25.266,25.268,25.27,25.272,25.274,25.276,25.278,25.28,25.282,25.284,25.286,25.288,25.29,25.292,25.294,25.296,25.298,25.3,25.302,25.304,25.306,25.308,25.31,25.312,25.314,25.316,25.318,25.32,25.322,25.324,25.326,25.328,25.33,25.332,25.334,25.336,25.338,25.34,25.342,25.344,25.346,25.348,25.35,25.352,25.354,25.356,25.358,25.36,25.362,25.364,25.366,25.368,25.37,25.372,25.374,25.376,25.378,25.38,25.382,25.384,25.386,25.388,25.39,25.392,25.394,25.396,25.398,25.4,25.402,25.404,25.406,25.408,25.41,25.412,25.414,25.416,25.418,25.42,25.422,25.424,25.426,25.428,25.43,25.432,25.434,25.436,25.438,25.44,25.442,25.444,25.446,25.448,25.45,25.452,25.454,25.456,25.458,25.46,25.462,25.464,25.466,25.468,25.47,25.472,25.474,25.476,25.478,25.48,25.482,25.484,25.486,25.488,25.49,25.492,25.494,25.496,25.498,25.5,25.502,25.504,25.506,25.508,25.51,25.512,25.514,25.516,25.518,25.52,25.522,25.524,25.526,25.528,25.53,25.532,25.534,25.536,25.538,25.54,25.542,25.544,25.546,25.548,25.55,25.552,25.554,25.556,25.558,25.56,25.562,25.564,25.566,25.568,25.57,25.572,25.574,25.576,25.578,25.58,25.582,25.584,25.586,25.588,25.59,25.592,25.594,25.596,25.598,25.6,25.602,25.604,25.606,25.608,25.61,25.612,25.614,25.616,25.618,25.62,25.622,25.624,25.626,25.628,25.63,25.632,25.634,25.636,25.638,25.64,25.642,25.644,25.646,25.648,25.65,25.652,25.654,25.656,25.658,25.66,25.662,25.664,25.666,25.668,25.67,25.672,25.674,25.676,25.678,25.68,25.682,25.684,25.686,25.688,25.69,25.692,25.694,25.696,25.698,25.7,25.702,25.704,25.706,25.708,25.71,25.712,25.714,25.716,25.718,25.72,25.722,25.724,25.726,25.728,25.73,25.732,25.734,25.736,25.738,25.74,25.742,25.744,25.746,25.748,25.75,25.752,25.754,25.756,25.758,25.76,25.762,25.764,25.766,25.768,25.77,25.772,25.774,25.776,25.778,25.78,25.782,25.784,25.786,25.788,25.79,25.792,25.794,25.796,25.798,25.8,25.802,25.804,25.806,25.808,25.81,25.812,25.814,25.816,25.818,25.82,25.822,25.824,25.826,25.828,25.83,25.832,25.834,25.836,25.838,25.84,25.842,25.844,25.846,25.848,25.85,25.852,25.854,25.856,25.858,25.86,25.862,25.864,25.866,25.868,25.87,25.872,25.874,25.876,25.878,25.88,25.882,25.884,25.886,25.888,25.89,25.892,25.894,25.896,25.898,25.9,25.902,25.904,25.906,25.908,25.91,25.912,25.914,25.916,25.918,25.92,25.922,25.924,25.926,25.928,25.93,25.932,25.934,25.936,25.938,25.94,25.942,25.944,25.946,25.948,25.95,25.952,25.954,25.956,25.958,25.96,25.962,25.964,25.966,25.968,25.97,25.972,25.974,25.976,25.978,25.98,25.982,25.984,25.986,25.988,25.99,25.992,25.994,25.996,25.998,26,26.002,26.004,26.006,26.008,26.01,26.012,26.014,26.016,26.018,26.02,26.022,26.024,26.026,26.028,26.03,26.032,26.034,26.036,26.038,26.04,26.042,26.044,26.046,26.048,26.05,26.052,26.054,26.056,26.058,26.06,26.062,26.064,26.066,26.068,26.07,26.072,26.074,26.076,26.078,26.08,26.082,26.084,26.086,26.088,26.09,26.092,26.094,26.096,26.098,26.1,26.102,26.104,26.106,26.108,26.11,26.112,26.114,26.116,26.118,26.12,26.122,26.124,26.126,26.128,26.13,26.132,26.134,26.136,26.138,26.14,26.142,26.144,26.146,26.148,26.15,26.152,26.154,26.156,26.158,26.16,26.162,26.164,26.166,26.168,26.17,26.172,26.174,26.176,26.178,26.18,26.182,26.184,26.186,26.188,26.19,26.192,26.194,26.196,26.198,26.2,26.202,26.204,26.206,26.208,26.21,26.212,26.214,26.216,26.218,26.22,26.222,26.224,26.226,26.228,26.23,26.232,26.234,26.236,26.238,26.24,26.242,26.244,26.246,26.248,26.25,26.252,26.254,26.256,26.258,26.26,26.262,26.264,26.266,26.268,26.27,26.272,26.274,26.276,26.278,26.28,26.282,26.284,26.286,26.288,26.29,26.292,26.294,26.296,26.298,26.3,26.302,26.304,26.306,26.308,26.31,26.312,26.314,26.316,26.318,26.32,26.322,26.324,26.326,26.328,26.33,26.332,26.334,26.336,26.338,26.34,26.342,26.344,26.346,26.348,26.35,26.352,26.354,26.356,26.358,26.36,26.362,26.364,26.366,26.368,26.37,26.372,26.374,26.376,26.378,26.38,26.382,26.384,26.386,26.388,26.39,26.392,26.394,26.396,26.398,26.4,26.402,26.404,26.406,26.408,26.41,26.412,26.414,26.416,26.418,26.42,26.422,26.424,26.426,26.428,26.43,26.432,26.434,26.436,26.438,26.44,26.442,26.444,26.446,26.448,26.45,26.452,26.454,26.456,26.458,26.46,26.462,26.464,26.466,26.468,26.47,26.472,26.474,26.476,26.478,26.48,26.482,26.484,26.486,26.488,26.49,26.492,26.494,26.496,26.498,26.5,26.502,26.504,26.506,26.508,26.51,26.512,26.514,26.516,26.518,26.52,26.522,26.524,26.526,26.528,26.53,26.532,26.534,26.536,26.538,26.54,26.542,26.544,26.546,26.548,26.55,26.552,26.554,26.556,26.558,26.56,26.562,26.564,26.566,26.568,26.57,26.572,26.574,26.576,26.578,26.58,26.582,26.584,26.586,26.588,26.59,26.592,26.594,26.596,26.598,26.6,26.602,26.604,26.606,26.608,26.61,26.612,26.614,26.616,26.618,26.62,26.622,26.624,26.626,26.628,26.63,26.632,26.634,26.636,26.638,26.64,26.642,26.644,26.646,26.648,26.65,26.652,26.654,26.656,26.658,26.66,26.662,26.664,26.666,26.668,26.67,26.672,26.674,26.676,26.678,26.68,26.682,26.684,26.686,26.688,26.69,26.692,26.694,26.696,26.698,26.7,26.702,26.704,26.706,26.708,26.71,26.712,26.714,26.716,26.718,26.72,26.722,26.724,26.726,26.728,26.73,26.732,26.734,26.736,26.738,26.74,26.742,26.744,26.746,26.748,26.75,26.752,26.754,26.756,26.758,26.76,26.762,26.764,26.766,26.768,26.77,26.772,26.774,26.776,26.778,26.78,26.782,26.784,26.786,26.788,26.79,26.792,26.794,26.796,26.798,26.8,26.802,26.804,26.806,26.808,26.81,26.812,26.814,26.816,26.818,26.82,26.822,26.824,26.826,26.828,26.83,26.832,26.834,26.836,26.838,26.84,26.842,26.844,26.846,26.848,26.85,26.852,26.854,26.856,26.858,26.86,26.862,26.864,26.866,26.868,26.87,26.872,26.874,26.876,26.878,26.88,26.882,26.884,26.886,26.888,26.89,26.892,26.894,26.896,26.898,26.9,26.902,26.904,26.906,26.908,26.91,26.912,26.914,26.916,26.918,26.92,26.922,26.924,26.926,26.928,26.93,26.932,26.934,26.936,26.938,26.94,26.942,26.944,26.946,26.948,26.95,26.952,26.954,26.956,26.958,26.96,26.962,26.964,26.966,26.968,26.97,26.972,26.974,26.976,26.978,26.98,26.982,26.984,26.986,26.988,26.99,26.992,26.994,26.996,26.998,27,27.002,27.004,27.006,27.008,27.01,27.012,27.014,27.016,27.018,27.02,27.022,27.024,27.026,27.028,27.03,27.032,27.034,27.036,27.038,27.04,27.042,27.044,27.046,27.048,27.05,27.052,27.054,27.056,27.058,27.06,27.062,27.064,27.066,27.068,27.07,27.072,27.074,27.076,27.078,27.08,27.082,27.084,27.086,27.088,27.09,27.092,27.094,27.096,27.098,27.1,27.102,27.104,27.106,27.108,27.11,27.112,27.114,27.116,27.118,27.12,27.122,27.124,27.126,27.128,27.13,27.132,27.134,27.136,27.138,27.14,27.142,27.144,27.146,27.148,27.15,27.152,27.154,27.156,27.158,27.16,27.162,27.164,27.166,27.168,27.17,27.172,27.174,27.176,27.178,27.18,27.182,27.184,27.186,27.188,27.19,27.192,27.194,27.196,27.198,27.2,27.202,27.204,27.206,27.208,27.21,27.212,27.214,27.216,27.218,27.22,27.222,27.224,27.226,27.228,27.23,27.232,27.234,27.236,27.238,27.24,27.242,27.244,27.246,27.248,27.25,27.252,27.254,27.256,27.258,27.26,27.262,27.264,27.266,27.268,27.27,27.272,27.274,27.276,27.278,27.28,27.282,27.284,27.286,27.288,27.29,27.292,27.294,27.296,27.298,27.3,27.302,27.304,27.306,27.308,27.31,27.312,27.314,27.316,27.318,27.32,27.322,27.324,27.326,27.328,27.33,27.332,27.334,27.336,27.338,27.34,27.342,27.344,27.346,27.348,27.35,27.352,27.354,27.356,27.358,27.36,27.362,27.364,27.366,27.368,27.37,27.372,27.374,27.376,27.378,27.38,27.382,27.384,27.386,27.388,27.39,27.392,27.394,27.396,27.398,27.4,27.402,27.404,27.406,27.408,27.41,27.412,27.414,27.416,27.418,27.42,27.422,27.424,27.426,27.428,27.43,27.432,27.434,27.436,27.438,27.44,27.442,27.444,27.446,27.448,27.45,27.452,27.454,27.456,27.458,27.46,27.462,27.464,27.466,27.468,27.47,27.472,27.474,27.476,27.478,27.48,27.482,27.484,27.486,27.488,27.49,27.492,27.494,27.496,27.498,27.5,27.502,27.504,27.506,27.508,27.51,27.512,27.514,27.516,27.518,27.52,27.522,27.524,27.526,27.528,27.53,27.532,27.534,27.536,27.538,27.54,27.542,27.544,27.546,27.548,27.55,27.552,27.554,27.556,27.558,27.56,27.562,27.564,27.566,27.568,27.57,27.572,27.574,27.576,27.578,27.58,27.582,27.584,27.586,27.588,27.59,27.592,27.594,27.596,27.598,27.6,27.602,27.604,27.606,27.608,27.61,27.612,27.614,27.616,27.618,27.62,27.622,27.624,27.626,27.628,27.63,27.632,27.634,27.636,27.638,27.64,27.642,27.644,27.646,27.648,27.65,27.652,27.654,27.656,27.658,27.66,27.662,27.664,27.666,27.668,27.67,27.672,27.674,27.676,27.678,27.68,27.682,27.684,27.686,27.688,27.69,27.692,27.694,27.696,27.698,27.7,27.702,27.704,27.706,27.708,27.71,27.712,27.714,27.716,27.718,27.72,27.722,27.724,27.726,27.728,27.73,27.732,27.734,27.736,27.738,27.74,27.742,27.744,27.746,27.748,27.75,27.752,27.754,27.756,27.758,27.76,27.762,27.764,27.766,27.768,27.77,27.772,27.774,27.776,27.778,27.78,27.782,27.784,27.786,27.788,27.79,27.792,27.794,27.796,27.798,27.8,27.802,27.804,27.806,27.808,27.81,27.812,27.814,27.816,27.818,27.82,27.822,27.824,27.826,27.828,27.83,27.832,27.834,27.836,27.838,27.84,27.842,27.844,27.846,27.848,27.85,27.852,27.854,27.856,27.858,27.86,27.862,27.864,27.866,27.868,27.87,27.872,27.874,27.876,27.878,27.88,27.882,27.884,27.886,27.888,27.89,27.892,27.894,27.896,27.898,27.9,27.902,27.904,27.906,27.908,27.91,27.912,27.914,27.916,27.918,27.92,27.922,27.924,27.926,27.928,27.93,27.932,27.934,27.936,27.938,27.94,27.942,27.944,27.946,27.948,27.95,27.952,27.954,27.956,27.958,27.96,27.962,27.964,27.966,27.968,27.97,27.972,27.974,27.976,27.978,27.98,27.982,27.984,27.986,27.988,27.99,27.992,27.994,27.996,27.998,28,28.002,28.004,28.006,28.008,28.01,28.012,28.014,28.016,28.018,28.02,28.022,28.024,28.026,28.028,28.03,28.032,28.034,28.036,28.038,28.04,28.042,28.044,28.046,28.048,28.05,28.052,28.054,28.056,28.058,28.06,28.062,28.064,28.066,28.068,28.07,28.072,28.074,28.076,28.078,28.08,28.082,28.084,28.086,28.088,28.09,28.092,28.094,28.096,28.098,28.1,28.102,28.104,28.106,28.108,28.11,28.112,28.114,28.116,28.118,28.12,28.122,28.124,28.126,28.128,28.13,28.132,28.134,28.136,28.138,28.14,28.142,28.144,28.146,28.148,28.15,28.152,28.154,28.156,28.158,28.16,28.162,28.164,28.166,28.168,28.17,28.172,28.174,28.176,28.178,28.18,28.182,28.184,28.186,28.188,28.19,28.192,28.194,28.196,28.198,28.2,28.202,28.204,28.206,28.208,28.21,28.212,28.214,28.216,28.218,28.22,28.222,28.224,28.226,28.228,28.23,28.232,28.234,28.236,28.238,28.24,28.242,28.244,28.246,28.248,28.25,28.252,28.254,28.256,28.258,28.26,28.262,28.264,28.266,28.268,28.27,28.272,28.274,28.276,28.278,28.28,28.282,28.284,28.286,28.288,28.29,28.292,28.294,28.296,28.298,28.3,28.302,28.304,28.306,28.308,28.31,28.312,28.314,28.316,28.318,28.32,28.322,28.324,28.326,28.328,28.33,28.332,28.334,28.336,28.338,28.34,28.342,28.344,28.346,28.348,28.35,28.352,28.354,28.356,28.358,28.36,28.362,28.364,28.366,28.368,28.37,28.372,28.374,28.376,28.378,28.38,28.382,28.384,28.386,28.388,28.39,28.392,28.394,28.396,28.398,28.4,28.402,28.404,28.406,28.408,28.41,28.412,28.414,28.416,28.418,28.42,28.422,28.424,28.426,28.428,28.43,28.432,28.434,28.436,28.438,28.44,28.442,28.444,28.446,28.448,28.45,28.452,28.454,28.456,28.458,28.46,28.462,28.464,28.466,28.468,28.47,28.472,28.474,28.476,28.478,28.48,28.482,28.484,28.486,28.488,28.49,28.492,28.494,28.496,28.498,28.5,28.502,28.504,28.506,28.508,28.51,28.512,28.514,28.516,28.518,28.52,28.522,28.524,28.526,28.528,28.53,28.532,28.534,28.536,28.538,28.54,28.542,28.544,28.546,28.548,28.55,28.552,28.554,28.556,28.558,28.56,28.562,28.564,28.566,28.568,28.57,28.572,28.574,28.576,28.578,28.58,28.582,28.584,28.586,28.588,28.59,28.592,28.594,28.596,28.598,28.6,28.602,28.604,28.606,28.608,28.61,28.612,28.614,28.616,28.618,28.62,28.622,28.624,28.626,28.628,28.63,28.632,28.634,28.636,28.638,28.64,28.642,28.644,28.646,28.648,28.65,28.652,28.654,28.656,28.658,28.66,28.662,28.664,28.666,28.668,28.67,28.672,28.674,28.676,28.678,28.68,28.682,28.684,28.686,28.688,28.69,28.692,28.694,28.696,28.698,28.7,28.702,28.704,28.706,28.708,28.71,28.712,28.714,28.716,28.718,28.72,28.722,28.724,28.726,28.728,28.73,28.732,28.734,28.736,28.738,28.74,28.742,28.744,28.746,28.748,28.75,28.752,28.754,28.756,28.758,28.76,28.762,28.764,28.766,28.768,28.77,28.772,28.774,28.776,28.778,28.78,28.782,28.784,28.786,28.788,28.79,28.792,28.794,28.796,28.798,28.8,28.802,28.804,28.806,28.808,28.81,28.812,28.814,28.816,28.818,28.82,28.822,28.824,28.826,28.828,28.83,28.832,28.834,28.836,28.838,28.84,28.842,28.844,28.846,28.848,28.85,28.852,28.854,28.856,28.858,28.86,28.862,28.864,28.866,28.868,28.87,28.872,28.874,28.876,28.878,28.88,28.882,28.884,28.886,28.888,28.89,28.892,28.894,28.896,28.898,28.9,28.902,28.904,28.906,28.908,28.91,28.912,28.914,28.916,28.918,28.92,28.922,28.924,28.926,28.928,28.93,28.932,28.934,28.936,28.938,28.94,28.942,28.944,28.946,28.948,28.95,28.952,28.954,28.956,28.958,28.96,28.962,28.964,28.966,28.968,28.97,28.972,28.974,28.976,28.978,28.98,28.982,28.984,28.986,28.988,28.99,28.992,28.994,28.996,28.998,29,29.002,29.004,29.006,29.008,29.01,29.012,29.014,29.016,29.018,29.02,29.022,29.024,29.026,29.028,29.03,29.032,29.034,29.036,29.038,29.04,29.042,29.044,29.046,29.048,29.05,29.052,29.054,29.056,29.058,29.06,29.062,29.064,29.066,29.068,29.07,29.072,29.074,29.076,29.078,29.08,29.082,29.084,29.086,29.088,29.09,29.092,29.094,29.096,29.098,29.1,29.102,29.104,29.106,29.108,29.11,29.112,29.114,29.116,29.118,29.12,29.122,29.124,29.126,29.128,29.13,29.132,29.134,29.136,29.138,29.14,29.142,29.144,29.146,29.148,29.15,29.152,29.154,29.156,29.158,29.16,29.162,29.164,29.166,29.168,29.17,29.172,29.174,29.176,29.178,29.18,29.182,29.184,29.186,29.188,29.19,29.192,29.194,29.196,29.198,29.2,29.202,29.204,29.206,29.208,29.21,29.212,29.214,29.216,29.218,29.22,29.222,29.224,29.226,29.228,29.23,29.232,29.234,29.236,29.238,29.24,29.242,29.244,29.246,29.248,29.25,29.252,29.254,29.256,29.258,29.26,29.262,29.264,29.266,29.268,29.27,29.272,29.274,29.276,29.278,29.28,29.282,29.284,29.286,29.288,29.29,29.292,29.294,29.296,29.298,29.3,29.302,29.304,29.306,29.308,29.31,29.312,29.314,29.316,29.318,29.32,29.322,29.324,29.326,29.328,29.33,29.332,29.334,29.336,29.338,29.34,29.342,29.344,29.346,29.348,29.35,29.352,29.354,29.356,29.358,29.36,29.362,29.364,29.366,29.368,29.37,29.372,29.374,29.376,29.378,29.38,29.382,29.384,29.386,29.388,29.39,29.392,29.394,29.396,29.398,29.4,29.402,29.404,29.406,29.408,29.41,29.412,29.414,29.416,29.418,29.42,29.422,29.424,29.426,29.428,29.43,29.432,29.434,29.436,29.438,29.44,29.442,29.444,29.446,29.448,29.45,29.452,29.454,29.456,29.458,29.46,29.462,29.464,29.466,29.468,29.47,29.472,29.474,29.476,29.478,29.48,29.482,29.484,29.486,29.488,29.49,29.492,29.494,29.496,29.498,29.5,29.502,29.504,29.506,29.508,29.51,29.512,29.514,29.516,29.518,29.52,29.522,29.524,29.526,29.528,29.53,29.532,29.534,29.536,29.538,29.54,29.542,29.544,29.546,29.548,29.55,29.552,29.554,29.556,29.558,29.56,29.562,29.564,29.566,29.568,29.57,29.572,29.574,29.576,29.578,29.58,29.582,29.584,29.586,29.588,29.59,29.592,29.594,29.596,29.598,29.6,29.602,29.604,29.606,29.608,29.61,29.612,29.614,29.616,29.618,29.62,29.622,29.624,29.626,29.628,29.63,29.632,29.634,29.636,29.638,29.64,29.642,29.644,29.646,29.648,29.65,29.652,29.654,29.656,29.658,29.66,29.662,29.664,29.666,29.668,29.67,29.672,29.674,29.676,29.678,29.68,29.682,29.684,29.686,29.688,29.69,29.692,29.694,29.696,29.698,29.7,29.702,29.704,29.706,29.708,29.71,29.712,29.714,29.716,29.718,29.72,29.722,29.724,29.726,29.728,29.73,29.732,29.734,29.736,29.738,29.74,29.742,29.744,29.746,29.748,29.75,29.752,29.754,29.756,29.758,29.76,29.762,29.764,29.766,29.768,29.77,29.772,29.774,29.776,29.778,29.78,29.782,29.784,29.786,29.788,29.79,29.792,29.794,29.796,29.798,29.8,29.802,29.804,29.806,29.808,29.81,29.812,29.814,29.816,29.818,29.82,29.822,29.824,29.826,29.828,29.83,29.832,29.834,29.836,29.838,29.84,29.842,29.844,29.846,29.848,29.85,29.852,29.854,29.856,29.858,29.86,29.862,29.864,29.866,29.868,29.87,29.872,29.874,29.876,29.878,29.88,29.882,29.884,29.886,29.888,29.89,29.892,29.894,29.896,29.898,29.9,29.902,29.904,29.906,29.908,29.91,29.912,29.914,29.916,29.918,29.92,29.922,29.924,29.926,29.928,29.93,29.932,29.934,29.936,29.938,29.94,29.942,29.944,29.946,29.948,29.95,29.952,29.954,29.956,29.958,29.96,29.962,29.964,29.966,29.968,29.97,29.972,29.974,29.976,29.978,29.98,29.982,29.984,29.986,29.988,29.99,29.992,29.994,29.996,29.998,30,30.002,30.004,30.006,30.008,30.01,30.012,30.014,30.016,30.018,30.02,30.022,30.024,30.026,30.028,30.03,30.032,30.034,30.036,30.038,30.04,30.042,30.044,30.046,30.048,30.05,30.052,30.054,30.056,30.058,30.06,30.062,30.064,30.066,30.068,30.07,30.072,30.074,30.076,30.078,30.08,30.082,30.084,30.086,30.088,30.09,30.092,30.094,30.096,30.098,30.1,30.102,30.104,30.106,30.108,30.11,30.112,30.114,30.116,30.118,30.12,30.122,30.124,30.126,30.128,30.13,30.132,30.134,30.136,30.138,30.14,30.142,30.144,30.146,30.148,30.15,30.152,30.154,30.156,30.158,30.16,30.162,30.164,30.166,30.168,30.17,30.172,30.174,30.176,30.178,30.18,30.182,30.184,30.186,30.188,30.19,30.192,30.194,30.196,30.198,30.2,30.202,30.204,30.206,30.208,30.21,30.212,30.214,30.216,30.218,30.22,30.222,30.224,30.226,30.228,30.23,30.232,30.234,30.236,30.238,30.24,30.242,30.244,30.246,30.248,30.25,30.252,30.254,30.256,30.258,30.26,30.262,30.264,30.266,30.268,30.27,30.272,30.274,30.276,30.278,30.28,30.282,30.284,30.286,30.288,30.29,30.292,30.294,30.296,30.298,30.3,30.302,30.304,30.306,30.308,30.31,30.312,30.314,30.316,30.318,30.32,30.322,30.324,30.326,30.328,30.33,30.332,30.334,30.336,30.338,30.34,30.342,30.344,30.346,30.348,30.35,30.352,30.354,30.356,30.358,30.36,30.362,30.364,30.366,30.368,30.37,30.372,30.374,30.376,30.378,30.38,30.382,30.384,30.386,30.388,30.39,30.392,30.394,30.396,30.398,30.4,30.402,30.404,30.406,30.408,30.41,30.412,30.414,30.416,30.418,30.42,30.422,30.424,30.426,30.428,30.43,30.432,30.434,30.436,30.438,30.44,30.442,30.444,30.446,30.448,30.45,30.452,30.454,30.456,30.458,30.46,30.462,30.464,30.466,30.468,30.47,30.472,30.474,30.476,30.478,30.48,30.482,30.484,30.486,30.488,30.49,30.492,30.494,30.496,30.498,30.5,30.502,30.504,30.506,30.508,30.51,30.512,30.514,30.516,30.518,30.52,30.522,30.524,30.526,30.528,30.53,30.532,30.534,30.536,30.538,30.54,30.542,30.544,30.546,30.548,30.55,30.552,30.554,30.556,30.558,30.56,30.562,30.564,30.566,30.568,30.57,30.572,30.574,30.576,30.578,30.58,30.582,30.584,30.586,30.588,30.59,30.592,30.594,30.596,30.598,30.6,30.602,30.604,30.606,30.608,30.61,30.612,30.614,30.616,30.618,30.62,30.622,30.624,30.626,30.628,30.63,30.632,30.634,30.636,30.638,30.64,30.642,30.644,30.646,30.648,30.65,30.652,30.654,30.656,30.658,30.66,30.662,30.664,30.666,30.668,30.67,30.672,30.674,30.676,30.678,30.68,30.682,30.684,30.686,30.688,30.69,30.692,30.694,30.696,30.698,30.7,30.702,30.704,30.706,30.708,30.71,30.712,30.714,30.716,30.718,30.72,30.722,30.724,30.726,30.728,30.73,30.732,30.734,30.736,30.738,30.74,30.742,30.744,30.746,30.748,30.75,30.752,30.754,30.756,30.758,30.76,30.762,30.764,30.766,30.768,30.77,30.772,30.774,30.776,30.778,30.78,30.782,30.784,30.786,30.788,30.79,30.792,30.794,30.796,30.798,30.8,30.802,30.804,30.806,30.808,30.81,30.812,30.814,30.816,30.818,30.82,30.822,30.824,30.826,30.828,30.83,30.832,30.834,30.836,30.838,30.84,30.842,30.844,30.846,30.848,30.85,30.852,30.854,30.856,30.858,30.86,30.862,30.864,30.866,30.868,30.87,30.872,30.874,30.876,30.878,30.88,30.882,30.884,30.886,30.888,30.89,30.892,30.894,30.896,30.898,30.9,30.902,30.904,30.906,30.908,30.91,30.912,30.914,30.916,30.918,30.92,30.922,30.924,30.926,30.928,30.93,30.932,30.934,30.936,30.938,30.94,30.942,30.944,30.946,30.948,30.95,30.952,30.954,30.956,30.958,30.96,30.962,30.964,30.966,30.968,30.97,30.972,30.974,30.976,30.978,30.98,30.982,30.984,30.986,30.988,30.99,30.992,30.994,30.996,30.998,31,31.002,31.004,31.006,31.008,31.01,31.012,31.014,31.016,31.018,31.02,31.022,31.024,31.026,31.028,31.03,31.032,31.034,31.036,31.038,31.04,31.042,31.044,31.046,31.048,31.05,31.052,31.054,31.056,31.058,31.06,31.062,31.064,31.066,31.068,31.07,31.072,31.074,31.076,31.078,31.08,31.082,31.084,31.086,31.088,31.09,31.092,31.094,31.096,31.098,31.1,31.102,31.104,31.106,31.108,31.11,31.112,31.114,31.116,31.118,31.12,31.122,31.124,31.126,31.128,31.13,31.132,31.134,31.136,31.138,31.14,31.142,31.144,31.146,31.148,31.15,31.152,31.154,31.156,31.158,31.16,31.162,31.164,31.166,31.168,31.17,31.172,31.174,31.176,31.178,31.18,31.182,31.184,31.186,31.188,31.19,31.192,31.194,31.196,31.198,31.2,31.202,31.204,31.206,31.208,31.21,31.212,31.214,31.216,31.218,31.22,31.222,31.224,31.226,31.228,31.23,31.232,31.234,31.236,31.238,31.24,31.242,31.244,31.246,31.248,31.25,31.252,31.254,31.256,31.258,31.26,31.262,31.264,31.266,31.268,31.27,31.272,31.274,31.276,31.278,31.28,31.282,31.284,31.286,31.288,31.29,31.292,31.294,31.296,31.298,31.3,31.302,31.304,31.306,31.308,31.31,31.312,31.314,31.316,31.318,31.32,31.322,31.324,31.326,31.328,31.33,31.332,31.334,31.336,31.338,31.34,31.342,31.344,31.346,31.348,31.35,31.352,31.354,31.356,31.358,31.36,31.362,31.364,31.366,31.368,31.37,31.372,31.374,31.376,31.378,31.38,31.382,31.384,31.386,31.388,31.39,31.392,31.394,31.396,31.398,31.4,31.402,31.404,31.406,31.408,31.41,31.412,31.414,31.416,31.418,31.42,31.422,31.424,31.426,31.428,31.43,31.432,31.434,31.436,31.438,31.44,31.442,31.444,31.446,31.448,31.45,31.452,31.454,31.456,31.458,31.46,31.462,31.464,31.466,31.468,31.47,31.472,31.474,31.476,31.478,31.48,31.482,31.484,31.486,31.488,31.49,31.492,31.494,31.496,31.498,31.5,31.502,31.504,31.506,31.508,31.51,31.512,31.514,31.516,31.518,31.52,31.522,31.524,31.526,31.528,31.53,31.532,31.534,31.536,31.538,31.54,31.542,31.544,31.546,31.548,31.55,31.552,31.554,31.556,31.558,31.56,31.562,31.564,31.566,31.568,31.57,31.572,31.574,31.576,31.578,31.58,31.582,31.584,31.586,31.588,31.59,31.592,31.594,31.596,31.598,31.6,31.602,31.604,31.606,31.608,31.61,31.612,31.614,31.616,31.618,31.62,31.622,31.624,31.626,31.628,31.63,31.632,31.634,31.636,31.638,31.64,31.642,31.644,31.646,31.648,31.65,31.652,31.654,31.656,31.658,31.66,31.662,31.664,31.666,31.668,31.67,31.672,31.674,31.676,31.678,31.68,31.682,31.684,31.686,31.688,31.69,31.692,31.694,31.696,31.698,31.7,31.702,31.704,31.706,31.708,31.71,31.712,31.714,31.716,31.718,31.72,31.722,31.724,31.726,31.728,31.73,31.732,31.734,31.736,31.738,31.74,31.742,31.744,31.746,31.748,31.75,31.752,31.754,31.756,31.758,31.76,31.762,31.764,31.766,31.768,31.77,31.772,31.774,31.776,31.778,31.78,31.782,31.784,31.786,31.788,31.79,31.792,31.794,31.796,31.798,31.8,31.802,31.804,31.806,31.808,31.81,31.812,31.814,31.816,31.818,31.82,31.822,31.824,31.826,31.828,31.83,31.832,31.834,31.836,31.838,31.84,31.842,31.844,31.846,31.848,31.85,31.852,31.854,31.856,31.858,31.86,31.862,31.864,31.866,31.868,31.87,31.872,31.874,31.876,31.878,31.88,31.882,31.884,31.886,31.888,31.89,31.892,31.894,31.896,31.898,31.9,31.902,31.904,31.906,31.908,31.91,31.912,31.914,31.916,31.918,31.92,31.922,31.924,31.926,31.928,31.93,31.932,31.934,31.936,31.938,31.94,31.942,31.944,31.946,31.948,31.95,31.952,31.954,31.956,31.958,31.96,31.962,31.964,31.966,31.968,31.97,31.972,31.974,31.976,31.978,31.98,31.982,31.984,31.986,31.988,31.99,31.992,31.994,31.996,31.998,32,32.002,32.004,32.006,32.008,32.01,32.012,32.014,32.016,32.018,32.02,32.022,32.024,32.026,32.028,32.03,32.032,32.034,32.036,32.038,32.04,32.042,32.044,32.046,32.048,32.05,32.052,32.054,32.056,32.058,32.06,32.062,32.064,32.066,32.068,32.07,32.072,32.074,32.076,32.078,32.08,32.082,32.084,32.086,32.088,32.09,32.092,32.094,32.096,32.098,32.1,32.102,32.104,32.106,32.108,32.11,32.112,32.114,32.116,32.118,32.12,32.122,32.124,32.126,32.128,32.13,32.132,32.134,32.136,32.138,32.14,32.142,32.144,32.146,32.148,32.15,32.152,32.154,32.156,32.158,32.16,32.162,32.164,32.166,32.168,32.17,32.172,32.174,32.176,32.178,32.18,32.182,32.184,32.186,32.188,32.19,32.192,32.194,32.196,32.198,32.2,32.202,32.204,32.206,32.208,32.21,32.212,32.214,32.216,32.218,32.22,32.222,32.224,32.226,32.228,32.23,32.232,32.234,32.236,32.238,32.24,32.242,32.244,32.246,32.248,32.25,32.252,32.254,32.256,32.258,32.26,32.262,32.264,32.266,32.268,32.27,32.272,32.274,32.276,32.278,32.28,32.282,32.284,32.286,32.288,32.29,32.292,32.294,32.296,32.298,32.3,32.302,32.304,32.306,32.308,32.31,32.312,32.314,32.316,32.318,32.32,32.322,32.324,32.326,32.328,32.33,32.332,32.334,32.336,32.338,32.34,32.342,32.344,32.346,32.348,32.35,32.352,32.354,32.356,32.358,32.36,32.362,32.364,32.366,32.368,32.37,32.372,32.374,32.376,32.378,32.38,32.382,32.384,32.386,32.388,32.39,32.392,32.394,32.396,32.398,32.4,32.402,32.404,32.406,32.408,32.41,32.412,32.414,32.416,32.418,32.42,32.422,32.424,32.426,32.428,32.43,32.432,32.434,32.436,32.438,32.44,32.442,32.444,32.446,32.448,32.45,32.452,32.454,32.456,32.458,32.46,32.462,32.464,32.466,32.468,32.47,32.472,32.474,32.476,32.478,32.48,32.482,32.484,32.486,32.488,32.49,32.492,32.494,32.496,32.498,32.5,32.502,32.504,32.506,32.508,32.51,32.512,32.514,32.516,32.518,32.52,32.522,32.524,32.526,32.528,32.53,32.532,32.534,32.536,32.538,32.54,32.542,32.544,32.546,32.548,32.55,32.552,32.554,32.556,32.558,32.56,32.562,32.564,32.566,32.568,32.57,32.572,32.574,32.576,32.578,32.58,32.582,32.584,32.586,32.588,32.59,32.592,32.594,32.596,32.598,32.6,32.602,32.604,32.606,32.608,32.61,32.612,32.614,32.616,32.618,32.62,32.622,32.624,32.626,32.628,32.63,32.632,32.634,32.636,32.638,32.64,32.642,32.644,32.646,32.648,32.65,32.652,32.654,32.656,32.658,32.66,32.662,32.664,32.666,32.668,32.67,32.672,32.674,32.676,32.678,32.68,32.682,32.684,32.686,32.688,32.69,32.692,32.694,32.696,32.698,32.7,32.702,32.704,32.706,32.708,32.71,32.712,32.714,32.716,32.718,32.72,32.722,32.724,32.726,32.728,32.73,32.732,32.734,32.736,32.738,32.74,32.742,32.744,32.746,32.748,32.75,32.752,32.754,32.756,32.758,32.76,32.762,32.764,32.766,32.768,32.77,32.772,32.774,32.776,32.778,32.78,32.782,32.784,32.786,32.788,32.79,32.792,32.794,32.796,32.798,32.8,32.802,32.804,32.806,32.808,32.81,32.812,32.814,32.816,32.818,32.82,32.822,32.824,32.826,32.828,32.83,32.832,32.834,32.836,32.838,32.84,32.842,32.844,32.846,32.848,32.85,32.852,32.854,32.856,32.858,32.86,32.862,32.864,32.866,32.868,32.87,32.872,32.874,32.876,32.878,32.88,32.882,32.884,32.886,32.888,32.89,32.892,32.894,32.896,32.898,32.9,32.902,32.904,32.906,32.908,32.91,32.912,32.914,32.916,32.918,32.92,32.922,32.924,32.926,32.928,32.93,32.932,32.934,32.936,32.938,32.94,32.942,32.944,32.946,32.948,32.95,32.952,32.954,32.956,32.958,32.96,32.962,32.964,32.966,32.968,32.97,32.972,32.974,32.976,32.978,32.98,32.982,32.984,32.986,32.988,32.99,32.992,32.994,32.996,32.998,33,33.002,33.004,33.006,33.008,33.01,33.012,33.014,33.016,33.018,33.02,33.022,33.024,33.026,33.028,33.03,33.032,33.034,33.036,33.038,33.04,33.042,33.044,33.046,33.048,33.05,33.052,33.054,33.056,33.058,33.06,33.062,33.064,33.066,33.068,33.07,33.072,33.074,33.076,33.078,33.08,33.082,33.084,33.086,33.088,33.09,33.092,33.094,33.096,33.098,33.1,33.102,33.104,33.106,33.108,33.11,33.112,33.114,33.116,33.118,33.12,33.122,33.124,33.126,33.128,33.13,33.132,33.134,33.136,33.138,33.14,33.142,33.144,33.146,33.148,33.15,33.152,33.154,33.156,33.158,33.16,33.162,33.164,33.166,33.168,33.17,33.172,33.174,33.176,33.178,33.18,33.182,33.184,33.186,33.188,33.19,33.192,33.194,33.196,33.198,33.2,33.202,33.204,33.206,33.208,33.21,33.212,33.214,33.216,33.218,33.22,33.222,33.224,33.226,33.228,33.23,33.232,33.234,33.236,33.238,33.24,33.242,33.244,33.246,33.248,33.25,33.252,33.254,33.256,33.258,33.26,33.262,33.264,33.266,33.268,33.27,33.272,33.274,33.276,33.278,33.28,33.282,33.284,33.286,33.288,33.29,33.292,33.294,33.296,33.298,33.3,33.302,33.304,33.306,33.308,33.31,33.312,33.314,33.316,33.318,33.32,33.322,33.324,33.326,33.328,33.33,33.332,33.334,33.336,33.338,33.34,33.342,33.344,33.346,33.348,33.35,33.352,33.354,33.356,33.358,33.36,33.362,33.364,33.366,33.368,33.37,33.372,33.374,33.376,33.378,33.38,33.382,33.384,33.386,33.388,33.39,33.392,33.394,33.396,33.398,33.4,33.402,33.404,33.406,33.408,33.41,33.412,33.414,33.416,33.418,33.42,33.422,33.424,33.426,33.428,33.43,33.432,33.434,33.436,33.438,33.44,33.442,33.444,33.446,33.448,33.45,33.452,33.454,33.456,33.458,33.46,33.462,33.464,33.466,33.468,33.47,33.472,33.474,33.476,33.478,33.48,33.482,33.484,33.486,33.488,33.49,33.492,33.494,33.496,33.498,33.5,33.502,33.504,33.506,33.508,33.51,33.512,33.514,33.516,33.518,33.52,33.522,33.524,33.526,33.528,33.53,33.532,33.534,33.536,33.538,33.54,33.542,33.544,33.546,33.548,33.55,33.552,33.554,33.556,33.558,33.56,33.562,33.564,33.566,33.568,33.57,33.572,33.574,33.576,33.578,33.58,33.582,33.584,33.586,33.588,33.59,33.592,33.594,33.596,33.598,33.6,33.602,33.604,33.606,33.608,33.61,33.612,33.614,33.616,33.618,33.62,33.622,33.624,33.626,33.628,33.63,33.632,33.634,33.636,33.638,33.64,33.642,33.644,33.646,33.648,33.65,33.652,33.654,33.656,33.658,33.66,33.662,33.664,33.666,33.668,33.67,33.672,33.674,33.676,33.678,33.68,33.682,33.684,33.686,33.688,33.69,33.692,33.694,33.696,33.698,33.7,33.702,33.704,33.706,33.708,33.71,33.712,33.714,33.716,33.718,33.72,33.722,33.724,33.726,33.728,33.73,33.732,33.734,33.736,33.738,33.74,33.742,33.744,33.746,33.748,33.75,33.752,33.754,33.756,33.758,33.76,33.762,33.764,33.766,33.768,33.77,33.772,33.774,33.776,33.778,33.78,33.782,33.784,33.786,33.788,33.79,33.792,33.794,33.796,33.798,33.8,33.802,33.804,33.806,33.808,33.81,33.812,33.814,33.816,33.818,33.82,33.822,33.824,33.826,33.828,33.83,33.832,33.834,33.836,33.838,33.84,33.842,33.844,33.846,33.848,33.85,33.852,33.854,33.856,33.858,33.86,33.862,33.864,33.866,33.868,33.87,33.872,33.874,33.876,33.878,33.88,33.882,33.884,33.886,33.888,33.89,33.892,33.894,33.896,33.898,33.9,33.902,33.904,33.906,33.908,33.91,33.912,33.914,33.916,33.918,33.92,33.922,33.924,33.926,33.928,33.93,33.932,33.934,33.936,33.938,33.94,33.942,33.944,33.946,33.948,33.95,33.952,33.954,33.956,33.958,33.96,33.962,33.964,33.966,33.968,33.97,33.972,33.974,33.976,33.978,33.98,33.982,33.984,33.986,33.988,33.99,33.992,33.994,33.996,33.998,34,34.002,34.004,34.006,34.008,34.01,34.012,34.014,34.016,34.018,34.02,34.022,34.024,34.026,34.028,34.03,34.032,34.034,34.036,34.038,34.04,34.042,34.044,34.046,34.048,34.05,34.052,34.054,34.056,34.058,34.06,34.062,34.064,34.066,34.068,34.07,34.072,34.074,34.076,34.078,34.08,34.082,34.084,34.086,34.088,34.09,34.092,34.094,34.096,34.098,34.1,34.102,34.104,34.106,34.108,34.11,34.112,34.114,34.116,34.118,34.12,34.122,34.124,34.126,34.128,34.13,34.132,34.134,34.136,34.138,34.14,34.142,34.144,34.146,34.148,34.15,34.152,34.154,34.156,34.158,34.16,34.162,34.164,34.166,34.168,34.17,34.172,34.174,34.176,34.178,34.18,34.182,34.184,34.186,34.188,34.19,34.192,34.194,34.196,34.198,34.2,34.202,34.204,34.206,34.208,34.21,34.212,34.214,34.216,34.218,34.22,34.222,34.224,34.226,34.228,34.23,34.232,34.234,34.236,34.238,34.24,34.242,34.244,34.246,34.248,34.25,34.252,34.254,34.256,34.258,34.26,34.262,34.264,34.266,34.268,34.27,34.272,34.274,34.276,34.278,34.28,34.282,34.284,34.286,34.288,34.29,34.292,34.294,34.296,34.298,34.3,34.302,34.304,34.306,34.308,34.31,34.312,34.314,34.316,34.318,34.32,34.322,34.324,34.326,34.328,34.33,34.332,34.334,34.336,34.338,34.34,34.342,34.344,34.346,34.348,34.35,34.352,34.354,34.356,34.358,34.36,34.362,34.364,34.366,34.368,34.37,34.372,34.374,34.376,34.378,34.38,34.382,34.384,34.386,34.388,34.39,34.392,34.394,34.396,34.398,34.4,34.402,34.404,34.406,34.408,34.41,34.412,34.414,34.416,34.418,34.42,34.422,34.424,34.426,34.428,34.43,34.432,34.434,34.436,34.438,34.44,34.442,34.444,34.446,34.448,34.45,34.452,34.454,34.456,34.458,34.46,34.462,34.464,34.466,34.468,34.47,34.472,34.474,34.476,34.478,34.48,34.482,34.484,34.486,34.488,34.49,34.492,34.494,34.496,34.498,34.5,34.502,34.504,34.506,34.508,34.51,34.512,34.514,34.516,34.518,34.52,34.522,34.524,34.526,34.528,34.53,34.532,34.534,34.536,34.538,34.54,34.542,34.544,34.546,34.548,34.55,34.552,34.554,34.556,34.558,34.56,34.562,34.564,34.566,34.568,34.57,34.572,34.574,34.576,34.578,34.58,34.582,34.584,34.586,34.588,34.59,34.592,34.594,34.596,34.598,34.6,34.602,34.604,34.606,34.608,34.61,34.612,34.614,34.616,34.618,34.62,34.622,34.624,34.626,34.628,34.63,34.632,34.634,34.636,34.638,34.64,34.642,34.644,34.646,34.648,34.65,34.652,34.654,34.656,34.658,34.66,34.662,34.664,34.666,34.668,34.67,34.672,34.674,34.676,34.678,34.68,34.682,34.684,34.686,34.688,34.69,34.692,34.694,34.696,34.698,34.7,34.702,34.704,34.706,34.708,34.71,34.712,34.714,34.716,34.718,34.72,34.722,34.724,34.726,34.728,34.73,34.732,34.734,34.736,34.738,34.74,34.742,34.744,34.746,34.748,34.75,34.752,34.754,34.756,34.758,34.76,34.762,34.764,34.766,34.768,34.77,34.772,34.774,34.776,34.778,34.78,34.782,34.784,34.786,34.788,34.79,34.792,34.794,34.796,34.798,34.8,34.802,34.804,34.806,34.808,34.81,34.812,34.814,34.816,34.818,34.82,34.822,34.824,34.826,34.828,34.83,34.832,34.834,34.836,34.838,34.84,34.842,34.844,34.846,34.848,34.85,34.852,34.854,34.856,34.858,34.86,34.862,34.864,34.866,34.868,34.87,34.872,34.874,34.876,34.878,34.88,34.882,34.884,34.886,34.888,34.89,34.892,34.894,34.896,34.898,34.9,34.902,34.904,34.906,34.908,34.91,34.912,34.914,34.916,34.918,34.92,34.922,34.924,34.926,34.928,34.93,34.932,34.934,34.936,34.938,34.94,34.942,34.944,34.946,34.948,34.95,34.952,34.954,34.956,34.958,34.96,34.962,34.964,34.966,34.968,34.97,34.972,34.974,34.976,34.978,34.98,34.982,34.984,34.986,34.988,34.99,34.992,34.994,34.996,34.998,35,35.002,35.004,35.006,35.008,35.01,35.012,35.014,35.016,35.018,35.02,35.022,35.024,35.026,35.028,35.03,35.032,35.034,35.036,35.038,35.04,35.042,35.044,35.046,35.048,35.05,35.052,35.054,35.056,35.058,35.06,35.062,35.064,35.066,35.068,35.07,35.072,35.074,35.076,35.078,35.08,35.082,35.084,35.086,35.088,35.09,35.092,35.094,35.096,35.098,35.1,35.102,35.104,35.106,35.108,35.11,35.112,35.114,35.116,35.118,35.12,35.122,35.124,35.126,35.128,35.13,35.132,35.134,35.136,35.138,35.14,35.142,35.144,35.146,35.148,35.15,35.152,35.154,35.156,35.158,35.16,35.162,35.164,35.166,35.168,35.17,35.172,35.174,35.176,35.178,35.18,35.182,35.184,35.186,35.188,35.19,35.192,35.194,35.196,35.198,35.2,35.202,35.204,35.206,35.208,35.21,35.212,35.214,35.216,35.218,35.22,35.222,35.224,35.226,35.228,35.23,35.232,35.234,35.236,35.238,35.24,35.242,35.244,35.246,35.248,35.25,35.252,35.254,35.256,35.258,35.26,35.262,35.264,35.266,35.268,35.27,35.272,35.274,35.276,35.278,35.28,35.282,35.284,35.286,35.288,35.29,35.292,35.294,35.296,35.298,35.3,35.302,35.304,35.306,35.308,35.31,35.312,35.314,35.316,35.318,35.32,35.322,35.324,35.326,35.328,35.33,35.332,35.334,35.336,35.338,35.34,35.342,35.344,35.346,35.348,35.35,35.352,35.354,35.356,35.358,35.36,35.362,35.364,35.366,35.368,35.37,35.372,35.374,35.376,35.378,35.38,35.382,35.384,35.386,35.388,35.39,35.392,35.394,35.396,35.398,35.4,35.402,35.404,35.406,35.408,35.41,35.412,35.414,35.416,35.418,35.42,35.422,35.424,35.426,35.428,35.43,35.432,35.434,35.436,35.438,35.44,35.442,35.444,35.446,35.448,35.45,35.452,35.454,35.456,35.458,35.46,35.462,35.464,35.466,35.468,35.47,35.472,35.474,35.476,35.478,35.48,35.482,35.484,35.486,35.488,35.49,35.492,35.494,35.496,35.498,35.5,35.502,35.504,35.506,35.508,35.51,35.512,35.514,35.516,35.518,35.52,35.522,35.524,35.526,35.528,35.53,35.532,35.534,35.536,35.538,35.54,35.542,35.544,35.546,35.548,35.55,35.552,35.554,35.556,35.558,35.56,35.562,35.564,35.566,35.568,35.57,35.572,35.574,35.576,35.578,35.58,35.582,35.584,35.586,35.588,35.59,35.592,35.594,35.596,35.598,35.6,35.602,35.604,35.606,35.608,35.61,35.612,35.614,35.616,35.618,35.62,35.622,35.624,35.626,35.628,35.63,35.632,35.634,35.636,35.638,35.64,35.642,35.644,35.646,35.648,35.65,35.652,35.654,35.656,35.658,35.66,35.662,35.664,35.666,35.668,35.67,35.672,35.674,35.676,35.678,35.68,35.682,35.684,35.686,35.688,35.69,35.692,35.694,35.696,35.698,35.7,35.702,35.704,35.706,35.708,35.71,35.712,35.714,35.716,35.718,35.72,35.722,35.724,35.726,35.728,35.73,35.732,35.734,35.736,35.738,35.74,35.742,35.744,35.746,35.748,35.75,35.752,35.754,35.756,35.758,35.76,35.762,35.764,35.766,35.768,35.77,35.772,35.774,35.776,35.778,35.78,35.782,35.784,35.786,35.788,35.79,35.792,35.794,35.796,35.798,35.8,35.802,35.804,35.806,35.808,35.81,35.812,35.814,35.816,35.818,35.82,35.822,35.824,35.826,35.828,35.83,35.832,35.834,35.836,35.838,35.84,35.842,35.844,35.846,35.848,35.85,35.852,35.854,35.856,35.858,35.86,35.862,35.864,35.866,35.868,35.87,35.872,35.874,35.876,35.878,35.88,35.882,35.884,35.886,35.888,35.89,35.892,35.894,35.896,35.898,35.9,35.902,35.904,35.906,35.908,35.91,35.912,35.914,35.916,35.918,35.92,35.922,35.924,35.926,35.928,35.93,35.932,35.934,35.936,35.938,35.94,35.942,35.944,35.946,35.948,35.95,35.952,35.954,35.956,35.958,35.96,35.962,35.964,35.966,35.968,35.97,35.972,35.974,35.976,35.978,35.98,35.982,35.984,35.986,35.988,35.99,35.992,35.994,35.996,35.998,36,36.002,36.004,36.006,36.008,36.01,36.012,36.014,36.016,36.018,36.02,36.022,36.024,36.026,36.028,36.03,36.032,36.034,36.036,36.038,36.04,36.042,36.044,36.046,36.048,36.05,36.052,36.054,36.056,36.058,36.06,36.062,36.064,36.066,36.068,36.07,36.072,36.074,36.076,36.078,36.08,36.082,36.084,36.086,36.088,36.09,36.092,36.094,36.096,36.098,36.1,36.102,36.104,36.106,36.108,36.11,36.112,36.114,36.116,36.118,36.12,36.122,36.124,36.126,36.128,36.13,36.132,36.134,36.136,36.138,36.14,36.142,36.144,36.146,36.148,36.15,36.152,36.154,36.156,36.158,36.16,36.162,36.164,36.166,36.168,36.17,36.172,36.174,36.176,36.178,36.18,36.182,36.184,36.186,36.188,36.19,36.192,36.194,36.196,36.198,36.2,36.202,36.204,36.206,36.208,36.21,36.212,36.214,36.216,36.218,36.22,36.222,36.224,36.226,36.228,36.23,36.232,36.234,36.236,36.238,36.24,36.242,36.244,36.246,36.248,36.25,36.252,36.254,36.256,36.258,36.26,36.262,36.264,36.266,36.268,36.27,36.272,36.274,36.276,36.278,36.28,36.282,36.284,36.286,36.288,36.29,36.292,36.294,36.296,36.298,36.3,36.302,36.304,36.306,36.308,36.31,36.312,36.314,36.316,36.318,36.32,36.322,36.324,36.326,36.328,36.33,36.332,36.334,36.336,36.338,36.34,36.342,36.344,36.346,36.348,36.35,36.352,36.354,36.356,36.358,36.36,36.362,36.364,36.366,36.368,36.37,36.372,36.374,36.376,36.378,36.38,36.382,36.384,36.386,36.388,36.39,36.392,36.394,36.396,36.398,36.4,36.402,36.404,36.406,36.408,36.41,36.412,36.414,36.416,36.418,36.42,36.422,36.424,36.426,36.428,36.43,36.432,36.434,36.436,36.438,36.44,36.442,36.444,36.446,36.448,36.45,36.452,36.454,36.456,36.458,36.46,36.462,36.464,36.466,36.468,36.47,36.472,36.474,36.476,36.478,36.48,36.482,36.484,36.486,36.488,36.49,36.492,36.494,36.496,36.498,36.5,36.502,36.504,36.506,36.508,36.51,36.512,36.514,36.516,36.518,36.52,36.522,36.524,36.526,36.528,36.53,36.532,36.534,36.536,36.538,36.54,36.542,36.544,36.546,36.548,36.55,36.552,36.554,36.556,36.558,36.56,36.562,36.564,36.566,36.568,36.57,36.572,36.574,36.576,36.578,36.58,36.582,36.584,36.586,36.588,36.59,36.592,36.594,36.596,36.598,36.6,36.602,36.604,36.606,36.608,36.61,36.612,36.614,36.616,36.618,36.62,36.622,36.624,36.626,36.628,36.63,36.632,36.634,36.636,36.638,36.64,36.642,36.644,36.646,36.648,36.65,36.652,36.654,36.656,36.658,36.66,36.662,36.664,36.666,36.668,36.67,36.672,36.674,36.676,36.678,36.68,36.682,36.684,36.686,36.688,36.69,36.692,36.694,36.696,36.698,36.7,36.702,36.704,36.706,36.708,36.71,36.712,36.714,36.716,36.718,36.72,36.722,36.724,36.726,36.728,36.73,36.732,36.734,36.736,36.738,36.74,36.742,36.744,36.746,36.748,36.75,36.752,36.754,36.756,36.758,36.76,36.762,36.764,36.766,36.768,36.77,36.772,36.774,36.776,36.778,36.78,36.782,36.784,36.786,36.788,36.79,36.792,36.794,36.796,36.798,36.8,36.802,36.804,36.806,36.808,36.81,36.812,36.814,36.816,36.818,36.82,36.822,36.824,36.826,36.828,36.83,36.832,36.834,36.836,36.838,36.84,36.842,36.844,36.846,36.848,36.85,36.852,36.854,36.856,36.858,36.86,36.862,36.864,36.866,36.868,36.87,36.872,36.874,36.876,36.878,36.88,36.882,36.884,36.886,36.888,36.89,36.892,